RAW Data export file (tab separated)


Client:	,SA95
Session:	SA95BP-6.75to4.25 
Date:	01-07-2018
Time:	14:33:24
Duration:	985	Seconds.
Output rate:	256	Samples/sec.

256 SPS	32 SPS	
Sensor-B:ECG/EKG	Sensor-G:RSP	


528.833	664.008
7432.347	664.008
16348.497	664.008
18285.000	664.008
16913.396	664.008
16352.688	664.008
16602.969	664.008
16772.717	664.008
16741.586	664.536
16701.520	664.536
16711.158	664.536
16728.268	664.536
16737.689	664.536
16744.629	664.536
16748.271	664.536
16750.611	664.536
16762.555	664.394
16778.168	664.394
16793.168	664.394
16808.648	664.394
16825.350	664.394
16836.125	664.394
16843.211	664.394
16855.949	664.394
16867.027	664.258
16908.080	664.258
16917.549	664.258
16934.965	664.258
16945.031	664.258
16954.977	664.258
16961.951	664.258
16986.863	664.258
16993.072	664.108
17008.340	664.108
17012.369	664.108
17012.520	664.108
17002.818	664.108
16991.154	664.108
16983.887	664.108
16955.320	664.108
16933.850	663.905
16911.967	663.905
16890.553	663.905
16864.475	663.905
16837.117	663.905
16816.275	663.905
16803.469	663.905
16786.117	663.905
16773.498	663.734
16768.746	663.734
16759.834	663.734
16750.061	663.734
16745.885	663.734
16746.830	663.734
16748.852	663.734
16746.447	663.734
16744.416	663.634
16741.656	663.634
16739.145	663.634
16742.881	663.634
16747.410	663.634
16747.221	663.634
16745.713	663.634
16742.566	663.634
16736.785	663.587
16737.107	663.587
16745.990	663.587
16749.338	663.587
16754.906	663.587
16750.939	663.587
16747.848	663.587
16749.428	663.587
16753.668	663.583
16754.363	663.583
16756.688	663.583
16761.885	663.583
16762.570	663.583
16760.660	663.583
16757.842	663.583
16757.686	663.583
16762.379	663.585
16766.137	663.585
16766.377	663.585
16763.059	663.585
16758.932	663.585
16757.082	663.585
16752.783	663.585
16740.955	663.585
16735.920	663.579
16743.031	663.579
16744.449	663.579
16735.035	663.579
16730.930	663.579
16731.699	663.579
16728.486	663.579
16723.848	663.579
16719.023	663.587
16716.793	663.587
16716.760	663.587
16714.479	663.587
16707.885	663.587
16699.525	663.587
16694.900	663.587
16693.039	663.587
16688.354	663.592
16688.420	663.592
16689.336	663.592
16683.361	663.592
16681.348	663.592
16677.689	663.592
16676.535	663.592
16678.010	663.592
16676.049	663.561
16670.828	663.561
16669.316	663.561
16673.525	663.561
16674.285	663.561
16670.908	663.561
16668.426	663.561
16666.744	663.561
16665.402	663.495
16661.193	663.495
16665.625	663.495
16669.678	663.495
16671.334	663.495
16668.012	663.495
16664.580	663.495
16662.859	663.495
16661.000	663.441
16657.648	663.441
16655.354	663.441
16654.047	663.441
16651.793	663.441
16653.111	663.441
16655.840	663.441
16653.508	663.441
16649.621	663.347
16649.729	663.347
16648.189	663.347
16657.010	663.347
16666.893	663.347
16666.730	663.347
16657.803	663.347
16647.428	663.347
16644.434	663.287
16663.537	663.287
16695.301	663.287
16727.447	663.287
16751.449	663.287
16753.906	663.287
16742.418	663.287
16739.031	663.287
16738.287	663.236
16739.395	663.236
16752.324	663.236
16759.465	663.236
16745.014	663.236
16721.750	663.236
16719.160	663.236
16722.869	663.236
16721.422	663.184
16713.588	663.184
16659.270	663.184
16636.504	663.184
16608.691	663.184
16628.371	663.184
16649.521	663.184
16651.773	663.184
16643.389	663.139
16637.766	663.139
16641.365	663.139
16642.871	663.139
16640.184	663.139
16643.764	663.139
16651.895	663.139
16657.516	663.139
16656.186	663.101
16642.777	663.101
16627.363	663.101
16640.949	663.101
16743.188	663.101
17008.199	663.101
17424.348	663.101
17818.338	663.101
18075.285	663.052
18312.877	663.052
18557.209	663.052
18629.186	663.052
18464.918	663.052
18112.160	663.052
17483.385	663.052
16780.900	663.052
16534.211	663.012
16443.137	663.012
16595.436	663.012
16676.131	663.012
16693.154	663.012
16687.881	663.012
16679.365	663.012
16675.223	663.012
16671.494	662.943
16664.035	662.943
16662.801	662.943
16667.926	662.943
16667.797	662.943
16662.854	662.943
16663.252	662.943
16665.488	662.943
16666.900	662.899
16663.920	662.899
16657.281	662.899
16657.783	662.899
16660.689	662.899
16664.061	662.899
16666.857	662.899
16664.943	662.899
16663.043	662.869
16671.264	662.869
16677.545	662.869
16677.715	662.869
16680.939	662.869
16682.859	662.869
16685.176	662.869
16687.105	662.869
16691.943	662.825
16697.258	662.825
16700.313	662.825
16707.016	662.825
16713.592	662.825
16711.598	662.825
16711.313	662.825
16722.584	662.825
16746.020	662.769
16756.768	662.769
16769.279	662.769
16779.188	662.769
16791.418	662.769
16797.668	662.769
16818.977	662.769
16827.678	662.769
16856.240	662.706
16873.240	662.706
16887.777	662.706
16894.396	662.706
16915.547	662.706
16931.898	662.706
16945.088	662.706
16949.719	662.706
16959.879	662.615
16962.668	662.615
16972.643	662.615
16978.146	662.615
16976.404	662.615
16967.643	662.615
16954.977	662.615
16940.070	662.615
16918.166	662.553
16887.254	662.553
16857.607	662.553
16833.932	662.553
16814.018	662.553
16794.076	662.553
16778.742	662.553
16760.768	662.553
16738.266	662.548
16721.699	662.548
16714.371	662.548
16711.566	662.548
16708.188	662.548
16702.598	662.548
16697.533	662.548
16691.777	662.548
16688.326	662.589
16691.316	662.589
16693.398	662.589
16689.945	662.589
16687.998	662.589
16685.029	662.589
16684.641	662.589
16685.469	662.589
16685.672	662.680
16695.910	662.680
16701.904	662.680
16707.326	662.680
16700.934	662.680
16695.889	662.680
16696.926	662.680
16702.035	662.680
16702.691	662.846
16701.377	662.846
16707.422	662.846
16711.771	662.846
16710.182	662.846
16706.646	662.846
16706.762	662.846
16707.734	662.846
16705.684	663.002
16706.072	663.002
16707.512	663.002
16705.234	663.002
16703.871	663.002
16700.363	663.002
16693.648	663.002
16689.619	663.002
16686.496	663.131
16685.834	663.131
16685.375	663.131
16682.848	663.131
16681.705	663.131
16675.893	663.131
16668.766	663.131
16665.984	663.131
16661.299	663.288
16653.713	663.288
16651.553	663.288
16652.166	663.288
16647.738	663.288
16643.789	663.288
16642.070	663.288
16638.873	663.288
16638.531	663.508
16639.404	663.508
16634.811	663.508
16632.656	663.508
16629.449	663.508
16626.928	663.508
16624.014	663.508
16622.209	663.508
16616.494	663.741
16614.563	663.741
16615.127	663.741
16620.674	663.741
16622.584	663.741
16619.648	663.741
16609.131	663.741
16607.625	663.741
16604.998	664.006
16601.926	664.006
16600.119	664.006
16606.738	664.006
16612.385	664.006
16609.043	664.006
16600.535	664.006
16595.674	664.006
16592.895	664.203
16593.342	664.203
16592.406	664.203
16588.395	664.203
16588.449	664.203
16588.094	664.203
16585.555	664.203
16583.541	664.203
16582.002	664.381
16578.059	664.381
16582.451	664.381
16587.090	664.381
16587.242	664.381
16582.400	664.381
16576.262	664.381
16570.537	664.381
16565.398	664.585
16571.508	664.585
16577.785	664.585
16573.166	664.585
16572.150	664.585
16594.094	664.585
16628.215	664.585
16656.426	664.585
16660.746	664.788
16646.830	664.788
16639.336	664.788
16627.010	664.788
16643.551	664.788
16671.639	664.788
16678.439	664.788
16647.406	664.788
16632.883	664.984
16616.889	664.984
16622.172	664.984
16622.029	664.984
16604.311	664.984
16566.148	664.984
16522.555	664.984
16505.467	664.984
16522.324	665.132
16535.303	665.132
16527.895	665.132
16518.326	665.132
16517.346	665.132
16518.479	665.132
16520.785	665.132
16523.074	665.132
16524.643	665.299
16525.910	665.299
16525.301	665.299
16520.523	665.299
16515.211	665.299
16519.152	665.299
16546.455	665.299
16660.814	665.299
16941.404	665.501
17370.236	665.501
17777.289	665.501
18048.611	665.501
18283.689	665.501
18403.820	665.501
18553.318	665.501
18377.521	665.501
17979.842	665.680
17664.727	665.680
16601.807	665.680
16383.764	665.680
16346.051	665.680
16477.924	665.680
16533.717	665.680
16545.502	665.680
16565.295	665.846
16565.459	665.846
16563.914	665.846
16557.230	665.846
16548.990	665.846
16548.355	665.846
16555.313	665.846
16550.326	665.846
16541.449	666.028
16541.332	666.028
16548.297	666.028
16552.002	666.028
16551.873	666.028
16555.451	666.028
16557.537	666.028
16550.652	666.028
16548.697	666.262
16557.238	666.262
16562.105	666.262
16558.615	666.262
16557.324	666.262
16562.414	666.262
16568.162	666.262
16567.965	666.262
16567.828	666.476
16571.340	666.476
16577.682	666.476
16581.199	666.476
16585.414	666.476
16589.176	666.476
16592.465	666.476
16599.320	666.476
16601.902	666.663
16609.072	666.663
16623.518	666.663
16639.570	666.663
16644.879	666.663
16659.463	666.663
16664.496	666.663
16677.635	666.663
16689.762	666.894
16703.465	666.894
16712.316	666.894
16742.141	666.894
16759.672	666.894
16773.518	666.894
16779.016	666.894
16791.549	666.894
16800.346	667.115
16830.125	667.115
16834.344	667.115
16841.572	667.115
16851.770	667.115
16857.639	667.115
16857.850	667.115
16851.713	667.115
16840.797	667.316
16826.879	667.316
16810.457	667.316
16794.336	667.316
16768.852	667.316
16736.732	667.316
16713.975	667.316
16693.262	667.316
16668.635	667.506
16648.098	667.506
16633.896	667.506
16619.963	667.506
16607.125	667.506
16593.168	667.506
16584.314	667.506
16582.035	667.506
16581.049	667.728
16579.605	667.728
16567.420	667.728
16562.873	667.728
16560.824	667.728
16559.559	667.728
16562.971	667.728
16563.893	667.728
16558.857	667.948
16554.041	667.948
16551.875	667.948
16554.744	667.948
16563.752	667.948
16563.008	667.948
16559.955	667.948
16558.598	667.948
16559.811	668.189
16563.168	668.189
16570.467	668.189
16574.797	668.189
16578.102	668.189
16575.727	668.189
16571.734	668.189
16573.219	668.189
16578.617	668.388
16581.193	668.388
16577.439	668.388
16566.258	668.388
16568.570	668.388
16576.684	668.388
16581.248	668.388
16582.816	668.388
16579.523	668.580
16572.082	668.580
16569.516	668.580
16567.889	668.580
16567.402	668.580
16572.387	668.580
16572.096	668.580
16562.027	668.580
16552.727	668.788
16547.518	668.788
16547.168	668.788
16548.697	668.788
16547.180	668.788
16540.615	668.788
16535.891	668.788
16526.600	668.788
16526.537	668.965
16524.725	668.965
16521.059	668.965
16514.494	668.965
16510.789	668.965
16509.227	668.965
16509.389	668.965
16510.283	668.965
16508.285	669.133
16506.623	669.133
16505.949	669.133
16505.936	669.133
16498.174	669.133
16491.820	669.133
16497.318	669.133
16500.980	669.133
16501.775	669.258
16497.602	669.258
16491.047	669.258
16490.738	669.258
16491.121	669.258
16492.961	669.258
16493.254	669.258
16490.195	669.258
16485.555	669.356
16484.988	669.356
16485.545	669.356
16485.010	669.356
16484.797	669.356
16486.576	669.356
16489.215	669.356
16484.660	669.356
16483.816	669.362
16484.783	669.362
16479.705	669.362
16472.615	669.362
16469.320	669.362
16470.912	669.362
16472.441	669.362
16471.180	669.362
16480.793	669.344
16490.543	669.344
16530.178	669.344
16551.848	669.344
16554.838	669.344
16551.939	669.344
16540.039	669.344
16537.656	669.344
16543.740	669.346
16570.664	669.346
16588.309	669.346
16580.939	669.346
16542.166	669.346
16539.260	669.346
16540.971	669.346
16531.936	669.346
16517.293	669.378
16486.896	669.378
16447.373	669.378
16424.143	669.378
16433.152	669.378
16455.246	669.378
16456.828	669.378
16448.635	669.378
16445.439	669.395
16449.322	669.395
16454.826	669.395
16455.998	669.395
16462.242	669.395
16471.971	669.395
16471.234	669.395
16463.635	669.395
16459.492	669.418
16459.246	669.418
16478.438	669.418
16581.008	669.418
16841.516	669.418
17265.029	669.418
17691.113	669.418
17969.643	669.418
18187.607	669.372
18409.916	669.372
18479.813	669.372
18358.666	669.372
18211.771	669.372
17328.035	669.372
16605.455	669.372
16232.372	669.372
16211.680	669.317
16393.654	669.317
16435.691	669.317
16484.799	669.317
16508.863	669.317
16512.273	669.317
16506.307	669.317
16493.121	669.317
16493.330	669.240
16496.760	669.240
16500.268	669.240
16504.295	669.240
16508.650	669.240
16507.006	669.240
16499.025	669.240
16495.529	669.240
16500.434	669.152
16510.039	669.152
16513.486	669.152
16512.094	669.152
16510.195	669.152
16510.572	669.152
16515.813	669.152
16520.904	669.152
16520.264	668.989
16518.594	668.989
16515.664	668.989
16523.160	668.989
16538.406	668.989
16543.625	668.989
16541.324	668.989
16545.207	668.989
16549.529	668.822
16553.549	668.822
16567.145	668.822
16583.068	668.822
16588.338	668.822
16587.977	668.822
16597.004	668.822
16613.893	668.822
16627.063	668.671
16632.422	668.671
16651.184	668.671
16657.439	668.671
16678.129	668.671
16699.926	668.671
16718.250	668.671
16726.172	668.671
16751.211	668.556
16756.887	668.556
16773.480	668.556
16787.502	668.556
16802.229	668.556
16810.299	668.556
16829.682	668.556
16833.572	668.556
16834.918	668.361
16841.754	668.361
16852.752	668.361
16852.867	668.361
16838.996	668.361
16823.436	668.361
16807.348	668.361
16783.480	668.361
16756.814	668.144
16732.211	668.144
16707.359	668.144
16685.953	668.144
16665.281	668.144
16647.234	668.144
16631.668	668.144
16615.092	668.144
16603.254	667.969
16595.064	667.969
16586.484	667.969
16579.869	667.969
16575.221	667.969
16572.867	667.969
16573.152	667.969
16570.545	667.969
16567.471	667.849
16562.494	667.849
16560.283	667.849
16565.959	667.849
16568.629	667.849
16563.350	667.849
16560.592	667.849
16565.527	667.849
16567.535	667.720
16572.613	667.720
16572.568	667.720
16570.938	667.720
16571.033	667.720
16576.490	667.720
16580.572	667.720
16587.537	667.720
16587.004	667.596
16583.799	667.596
16589.789	667.596
16597.498	667.596
16601.385	667.596
16601.754	667.596
16601.480	667.596
16601.732	667.596
16605.832	667.546
16612.959	667.546
16613.480	667.546
16607.744	667.546
16604.584	667.546
16601.787	667.546
16600.043	667.546
16597.936	667.546
16593.451	667.488
16594.311	667.488
16596.896	667.488
16595.049	667.488
16589.246	667.488
16589.143	667.488
16590.607	667.488
16585.953	667.488
16581.459	667.432
16581.293	667.432
16581.506	667.432
16575.680	667.432
16566.490	667.432
16564.506	667.432
16563.547	667.432
16561.031	667.432
16559.379	667.395
16560.785	667.395
16557.430	667.395
16554.143	667.395
16545.561	667.395
16542.891	667.395
16538.408	667.395
16542.965	667.395
16543.668	667.299
16541.941	667.299
16534.754	667.299
16533.920	667.299
16529.672	667.299
16526.816	667.299
16529.811	667.299
16532.906	667.299
16531.611	667.229
16530.834	667.229
16529.586	667.229
16526.068	667.229
16524.625	667.229
16527.781	667.229
16523.762	667.229
16521.090	667.229
16526.287	667.134
16530.311	667.134
16530.809	667.134
16529.672	667.134
16532.623	667.134
16532.646	667.134
16529.254	667.134
16526.854	667.134
16531.363	666.999
16539.475	666.999
16544.070	666.999
16535.623	666.999
16533.088	666.999
16569.805	666.999
16610.385	666.999
16629.779	666.999
16630.730	666.859
16622.592	666.859
16621.031	666.859
16616.889	666.859
16623.184	666.859
16648.645	666.859
16659.945	666.859
16634.318	666.859
16617.717	666.778
16605.861	666.778
16615.447	666.778
16612.580	666.778
16604.424	666.778
16563.361	666.778
16527.117	666.778
16503.574	666.778
16507.373	666.695
16525.154	666.695
16535.625	666.695
16538.957	666.695
16537.600	666.695
16534.299	666.695
16536.188	666.695
16539.459	666.695
16542.314	666.619
16545.973	666.619
16552.977	666.619
16553.047	666.619
16541.883	666.619
16535.148	666.619
16561.102	666.619
16680.289	666.619
16966.510	666.527
17396.961	666.527
17775.332	666.527
18022.297	666.527
18262.605	666.527
18494.213	666.527
18551.254	666.527
18493.164	666.527
18014.645	666.414
17359.930	666.414
16666.992	666.414
16440.861	666.414
16407.059	666.414
16487.641	666.414
16613.572	666.414
16627.852	666.414
16622.732	666.257
16618.195	666.257
16614.717	666.257
16614.900	666.257
16610.049	666.257
16603.881	666.257
16600.596	666.257
16601.955	666.257
16609.961	666.118
16609.418	666.118
16609.064	666.118
16608.240	666.118
16608.512	666.118
16612.971	666.118
16618.295	666.118
16614.914	666.118
16606.680	666.010
16601.773	666.010
16610.100	666.010
16625.697	666.010
16632.789	666.010
16625.506	666.010
16619.225	666.010
16621.447	666.010
16625.176	665.889
16634.318	665.889
16644.949	665.889
16645.096	665.889
16638.697	665.889
16642.623	665.889
16659.879	665.889
16674.113	665.889
16677.773	665.732
16686.498	665.732
16692.852	665.732
16698.182	665.732
16702.607	665.732
16722.361	665.732
16729.668	665.732
16753.229	665.732
16764.725	665.566
16775.676	665.566
16786.301	665.566
16819.824	665.566
16827.842	665.566
16847.840	665.566
16859.785	665.566
16877.662	665.566
16887.494	665.368
16907.180	665.368
16911.244	665.368
16911.912	665.368
16923.428	665.368
16936.506	665.368
16945.037	665.368
16944.076	665.368
16929.123	665.120
16906.688	665.120
16884.047	665.120
16865.371	665.120
16845.502	665.120
16822.695	665.120
16795.777	665.120
16767.785	665.120
16739.111	664.905
16720.670	664.905
16714.186	664.905
16706.002	664.905
16695.104	664.905
16685.070	664.905
16677.650	664.905
16665.217	664.905
16657.857	664.735
16660.752	664.735
16664.693	664.735
16662.887	664.735
16658.697	664.735
16656.797	664.735
16652.541	664.735
16652.861	664.735
16657.697	664.569
16660.814	664.569
16663.703	664.569
16665.068	664.569
16663.061	664.569
16660.229	664.569
16655.396	664.569
16667.348	664.569
16681.990	664.490
16684.688	664.490
16682.734	664.490
16682.080	664.490
16678.396	664.490
16678.678	664.490
16684.617	664.490
16694.303	664.490
16697.271	664.408
16700.568	664.408
16698.352	664.408
16691.303	664.408
16695.938	664.408
16703.332	664.408
16702.303	664.408
16697.045	664.408
16693.734	664.323
16685.861	664.323
16682.740	664.323
16689.205	664.323
16688.350	664.323
16680.582	664.323
16682.984	664.323
16685.178	664.323
16670.490	664.236
16659.738	664.236
16662.699	664.236
16665.096	664.236
16665.488	664.236
16662.082	664.236
16652.145	664.236
16647.596	664.236
16647.932	664.142
16648.463	664.142
16647.926	664.142
16642.947	664.142
16636.119	664.142
16633.879	664.142
16634.221	664.142
16630.908	664.142
16627.242	664.079
16627.541	664.079
16628.809	664.079
16626.865	664.079
16625.344	664.079
16622.137	664.079
16623.719	664.079
16622.078	664.079
16617.123	663.999
16617.771	663.999
16622.445	663.999
16621.203	663.999
16620.480	663.999
16623.787	663.999
16625.094	663.999
16621.910	663.999
16612.963	663.918
16607.217	663.918
16610.527	663.918
16618.668	663.918
16621.936	663.918
16622.070	663.918
16616.609	663.918
16612.311	663.918
16615.496	663.839
16616.637	663.839
16614.557	663.839
16614.859	663.839
16614.225	663.839
16614.244	663.839
16614.396	663.839
16615.994	663.839
16620.430	663.752
16619.785	663.752
16624.811	663.752
16636.205	663.752
16684.447	663.752
16700.436	663.752
16701.359	663.752
16704.303	663.752
16708.773	663.633
16706.027	663.633
16708.775	663.633
16725.990	663.633
16736.625	663.633
16731.820	663.633
16700.926	663.633
16692.627	663.633
16693.389	663.568
16691.238	663.568
16657.604	663.568
16624.373	663.568
16594.730	663.568
16586.791	663.568
16600.053	663.568
16609.326	663.568
16610.258	663.533
16609.555	663.533
16611.443	663.533
16613.344	663.533
16613.293	663.533
16617.402	663.533
16621.965	663.533
16619.113	663.533
16617.869	663.497
16622.371	663.497
16614.758	663.497
16605.768	663.497
16637.592	663.497
16789.736	663.497
17117.828	663.497
17558.473	663.497
17915.443	663.478
18152.768	663.478
18270.115	663.478
18606.979	663.478
18598.861	663.478
18372.992	663.478
18186.109	663.478
17246.346	663.478
16899.859	663.436
16387.939	663.436
16490.766	663.436
16623.746	663.436
16659.691	663.436
16692.049	663.436
16683.357	663.436
16673.309	663.436
16669.070	663.380
16660.574	663.380
16662.543	663.380
16667.926	663.380
16666.273	663.380
16662.770	663.380
16660.162	663.380
16664.613	663.380
16667.980	663.323
16666.789	663.323
16663.893	663.323
16662.355	663.323
16668.643	663.323
16677.645	663.323
16680.375	663.323
16683.820	663.323
16687.203	663.294
16680.750	663.294
16683.311	663.294
16691.693	663.294
16693.645	663.294
16693.594	663.294
16698.783	663.294
16706.912	663.294
16712.568	663.241
16711.979	663.241
16710.770	663.241
16715.652	663.241
16727.963	663.241
16737.785	663.241
16741.754	663.241
16745.973	663.241
16759.541	663.172
16763.730	663.172
16782.205	663.172
16795.176	663.172
16806.498	663.172
16811.521	663.172
16832.938	663.172
16840.777	663.172
16867.945	663.096
16891.855	663.096
16911.145	663.096
16917.916	663.096
16937.129	663.096
16943.408	663.096
16957.197	663.096
16965.885	663.096
16975.854	662.991
16990.373	662.991
17008.041	662.991
17016.824	662.991
17013.904	662.991
17006.805	662.991
16996.133	662.991
16981.281	662.991
16963.768	662.882
16942.209	662.882
16918.406	662.882
16889.207	662.882
16858.082	662.882
16832.041	662.882
16815.928	662.882
16797.033	662.882
16782.654	662.781
16772.195	662.781
16764.576	662.781
16758.510	662.781
16745.959	662.781
16737.740	662.781
16737.951	662.781
16739.535	662.781
16738.178	662.664
16735.938	662.664
16735.264	662.664
16730.895	662.664
16730.969	662.664
16728.893	662.664
16727.473	662.664
16732.930	662.664
16737.715	662.603
16743.371	662.603
16740.721	662.603
16744.301	662.603
16746.105	662.603
16746.508	662.603
16747.203	662.603
16751.934	662.603
16758.510	662.583
16765.125	662.583
16771.484	662.583
16772.238	662.583
16766.975	662.583
16765.369	662.583
16773.990	662.583
16779.744	662.583
16774.406	662.564
16770.803	662.564
16774.238	662.564
16777.678	662.564
16773.426	662.564
16770.809	662.564
16772.389	662.564
16772.238	662.564
16770.939	662.498
16767.568	662.498
16761.010	662.498
16760.096	662.498
16760.910	662.498
16755.055	662.498
16748.006	662.498
16744.889	662.498
16742.893	662.467
16739.584	662.467
16738.152	662.467
16737.859	662.467
16738.148	662.467
16733.930	662.467
16726.287	662.467
16721.693	662.467
16715.207	662.425
16717.656	662.425
16725.289	662.425
16722.303	662.425
16720.191	662.425
16718.736	662.425
16712.916	662.425
16711.756	662.425
16709.936	662.408
16709.172	662.408
16713.207	662.408
16714.689	662.408
16715.617	662.408
16708.059	662.408
16699.061	662.408
16700.906	662.408
16702.314	662.326
16698.326	662.326
16698.543	662.326
16700.426	662.326
16702.621	662.326
16704.359	662.326
16703.389	662.326
16704.107	662.326
16704.713	662.240
16708.893	662.240
16710.324	662.240
16707.781	662.240
16706.818	662.240
16706.918	662.240
16703.910	662.240
16700.643	662.240
16701.516	662.160
16706.689	662.160
16712.512	662.160
16713.951	662.160
16715.473	662.160
16716.740	662.160
16714.033	662.160
16728.465	662.160
16744.957	662.048
16795.025	662.048
16803.279	662.048
16812.887	662.048
16809.713	662.048
16805.152	662.048
16803.189	662.048
16812.404	662.048
16825.521	661.955
16824.100	661.955
16815.637	661.955
16790.773	661.955
16790.482	661.955
16787.922	661.955
16766.072	661.955
16743.693	661.955
16724.648	661.876
16699.172	661.876
16683.475	661.876
16694.180	661.876
16707.787	661.876
16704.449	661.876
16692.910	661.876
16692.719	661.876
16703.082	661.805
16708.797	661.805
16709.275	661.805
16714.207	661.805
16722.652	661.805
16726.512	661.805
16715.293	661.805
16697.662	661.805
16703.424	661.722
16763.297	661.722
16941.199	661.722
17294.414	661.722
17737.461	661.722
18060.830	661.722
18285.324	661.722
18536.008	661.722
18711.457	661.629
18708.777	661.629
18377.248	661.629
18164.725	661.629
17169.936	661.629
16601.600	661.629
16468.221	661.629
16526.979	661.629
16722.162	661.526
16758.254	661.526
16765.027	661.526
16766.264	661.526
16761.453	661.526
16760.197	661.526
16759.592	661.526
16753.881	661.526
16750.449	661.420
16750.781	661.420
16752.582	661.420
16753.426	661.420
16756.150	661.420
16750.871	661.420
16747.547	661.420
16752.645	661.420
16759.080	661.338
16764.396	661.338
16765.359	661.338
16764.885	661.338
16762.734	661.338
16757.652	661.338
16760.637	661.338
16766.154	661.338
16769.613	661.249
16772.004	661.249
16774.164	661.249
16775.586	661.249
16776.215	661.249
16787.443	661.249
16797.576	661.249
16800.756	661.249
16801.471	661.102
16799.848	661.102
16809.182	661.102
16825.789	661.102
16832.656	661.102
16846.043	661.102
16852.469	661.102
16861.824	661.102
16869.922	660.939
16895.484	660.939
16905.441	660.939
16915.289	660.939
16922.797	660.939
16953.016	660.939
16964.176	660.939
16995.529	660.939
17007.758	660.766
17018.055	660.766
17025.313	660.766
17049.805	660.766
17062.176	660.766
17070.926	660.766
17077.355	660.766
17084.504	660.766
17095.275	660.576
17094.881	660.576
17086.252	660.576
17076.264	660.576
17062.447	660.576
17040.623	660.576
17022.299	660.576
17000.146	660.576
16973.281	660.404
16956.891	660.404
16943.170	660.404
16921.971	660.404
16897.932	660.404
16879.984	660.404
16869.094	660.404
16860.236	660.404
16852.113	660.248
16847.078	660.248
16841.137	660.248
16838.480	660.248
16831.387	660.248
16827.264	660.248
16827.445	660.248
16830.809	660.248
16831.830	660.131
16830.225	660.131
16831.227	660.131
16839.139	660.131
16844.465	660.131
16845.389	660.131
16847.285	660.131
16850.682	660.131
16854.828	660.035
16854.561	660.035
16857.389	660.035
16860.254	660.035
16865.068	660.035
16862.287	660.035
16856.268	660.035
16864.633	660.035
16874.125	659.957
16872.145	659.957
16873.014	659.957
16877.502	659.957
16880.035	659.957
16879.893	659.957
16876.311	659.957
16864.746	659.957
16855.486	659.875
16860.844	659.875
16867.432	659.875
16871.490	659.875
16871.703	659.875
16866.418	659.875
16864.117	659.875
16855.580	659.875
16841.271	659.766
16835.137	659.766
16839.238	659.766
16842.207	659.766
16843.076	659.766
16838.795	659.766
16834.658	659.766
16823.322	659.766
16825.498	659.635
16824.502	659.635
16822.373	659.635
16814.291	659.635
16813.277	659.635
16808.322	659.635
16802.785	659.635
16801.119	659.635
16800.211	659.446
16800.119	659.446
16797.273	659.446
16787.646	659.446
16789.725	659.446
16788.945	659.446
16784.900	659.446
16779.580	659.446
16783.068	659.206
16784.430	659.206
16779.660	659.206
16778.631	659.206
16777.746	659.206
16774.311	659.206
16770.982	659.206
16771.875	659.206
16777.098	658.971
16778.066	658.971
16774.117	658.971
16774.320	658.971
16775.918	658.971
16773.963	658.971
16770.068	658.971
16769.453	658.971
16775.457	658.744
16778.584	658.744
16777.117	658.744
16779.105	658.744
16780.199	658.744
16776.932	658.744
16775.328	658.744
16779.457	658.744
16784.332	658.496
16785.344	658.496
16802.510	658.496
16830.168	658.496
16856.301	658.496
16865.436	658.496
16871.174	658.496
16868.785	658.496
16863.092	658.289
16859.855	658.289
16871.379	658.289
16884.814	658.289
16897.453	658.289
16883.115	658.289
16843.756	658.289
16844.678	658.289
16846.854	658.147
16844.109	658.147
16807.262	658.147
16768.482	658.147
16737.680	658.147
16738.762	658.147
16759.207	658.147
16769.123	658.147
16765.129	658.041
16759.674	658.041
16760.590	658.041
16764.742	658.041
16770.137	658.041
16774.633	658.041
16778.006	658.041
16777.568	658.041
16773.494	657.945
16770.039	657.945
16767.545	657.945
16776.762	657.945
16842.443	657.945
17037.637	657.945
17404.455	657.945
17837.705	657.945
18147.318	657.864
18359.848	657.864
18604.102	657.864
18771.104	657.864
18686.000	657.864
18392.896	657.864
18159.385	657.864
17130.619	657.864
16817.598	657.836
16516.658	657.836
16664.721	657.836
16774.105	657.836
16795.689	657.836
16813.928	657.836
16815.195	657.836
16822.480	657.836
16826.672	657.789
16823.018	657.789
16818.732	657.789
16808.979	657.789
16807.342	657.789
16807.594	657.789
16807.498	657.789
16805.855	657.789
16806.553	657.775
16807.102	657.775
16810.568	657.775
16811.061	657.775
16806.607	657.775
16810.930	657.775
16817.082	657.775
16817.018	657.775
16818.775	657.769
16823.324	657.769
16827.248	657.769
16829.625	657.769
16830.578	657.769
16830.412	657.769
16834.658	657.769
16845.588	657.769
16853.814	657.759
16855.117	657.759
16855.734	657.759
16858.443	657.759
16868.670	657.759
16875.367	657.759
16892.266	657.759
16896.760	657.759
16902.850	657.750
16907.424	657.750
16922.203	657.750
16928.727	657.750
16953.107	657.750
16964.637	657.750
16980.703	657.750
16989.316	657.750
17006.313	657.728
17016.188	657.728
17043.928	657.728
17056.104	657.728
17072.863	657.728
17081.752	657.728
17098.643	657.728
17104.287	657.728
17118.621	657.646
17124.035	657.646
17133.559	657.646
17139.906	657.646
17135.918	657.646
17129.045	657.646
17121.320	657.646
17111.609	657.646
17095.133	657.555
17068.240	657.555
17045.111	657.555
17019.563	657.555
16991.514	657.555
16973.164	657.555
16961.059	657.555
16941.584	657.555
16918.939	657.483
16901.279	657.483
16894.047	657.483
16887.178	657.483
16881.703	657.483
16877.447	657.483
16870.537	657.483
16864.979	657.483
16867.781	657.440
16867.711	657.440
16862.869	657.440
16861.021	657.440
16865.082	657.440
16865.037	657.440
16864.934	657.440
16867.100	657.440
16869.951	657.419
16875.680	657.419
16875.721	657.419
16873.637	657.419
16871.926	657.419
16873.285	657.419
16871.773	657.419
16874.557	657.419
16880.576	657.416
16892.693	657.416
16892.207	657.416
16890.639	657.416
16895.059	657.416
16904.934	657.416
16908.096	657.416
16904.176	657.416
16900.848	657.413
16899.766	657.413
16901.943	657.413
16900.184	657.413
16902.795	657.413
16908.957	657.413
16905.813	657.413
16900.361	657.413
16901.090	657.417
16899.125	657.417
16886.648	657.417
16881.564	657.417
16879.006	657.417
16873.090	657.417
16874.852	657.417
16872.926	657.417
16864.918	657.396
16859.207	657.396
16855.779	657.396
16850.984	657.396
16849.199	657.396
16847.875	657.396
16843.574	657.396
16843.576	657.396
16838.717	657.318
16835.375	657.318
16830.461	657.318
16830.389	657.318
16839.303	657.318
16838.461	657.318
16834.654	657.318
16835.340	657.318
16821.807	657.201
16813.939	657.201
16812.178	657.201
16815.051	657.201
16817.771	657.201
16822.887	657.201
16822.697	657.201
16815.064	657.201
16806.984	657.101
16798.867	657.101
16800.328	657.101
16807.783	657.101
16810.760	657.101
16815.961	657.101
16820.984	657.101
16817.684	657.101
16813.234	656.993
16808.963	656.993
16805.773	656.993
16806.570	656.993
16806.783	656.993
16804.637	656.993
16815.006	656.993
16846.186	656.993
16881.383	656.926
16898.617	656.926
16900.818	656.926
16895.211	656.926
16889.195	656.926
16885.016	656.926
16889.166	656.926
16911.340	656.926
16925.074	656.852
16918.383	656.852
16887.045	656.852
16878.080	656.852
16879.998	656.852
16867.160	656.852
16856.344	656.852
16809.203	656.852
16777.652	656.804
16763.254	656.804
16764.771	656.804
16781.365	656.804
16783.652	656.804
16778.047	656.804
16769.955	656.804
16770.115	656.804
16776.514	656.775
16783.486	656.775
16787.201	656.775
16790.189	656.775
16792.586	656.775
16790.461	656.775
16783.145	656.775
16777.949	656.775
16792.582	656.779
16894.230	656.779
17162.234	656.779
17576.787	656.779
17976.906	656.779
18233.725	656.779
18447.906	656.779
18687.740	656.779
18771.758	656.728
18600.352	656.728
18232.242	656.728
17605.398	656.728
16911.098	656.728
16541.148	656.728
16579.908	656.728
16737.313	656.728
16823.674	656.668
16842.613	656.668
16851.605	656.668
16841.328	656.668
16837.537	656.668
16835.828	656.668
16831.244	656.668
16832.162	656.668
16840.164	656.602
16837.988	656.602
16833.076	656.602
16831.137	656.602
16832.766	656.602
16840.672	656.602
16848.385	656.602
16849.930	656.602
16840.713	656.556
16836.928	656.556
16845.061	656.556
16849.680	656.556
16847.400	656.556
16853.063	656.556
16854.314	656.556
16850.039	656.556
16853.934	656.524
16859.150	656.524
16860.719	656.524
16864.801	656.524
16872.363	656.524
16877.369	656.524
16881.074	656.524
16884.578	656.524
16892.121	656.487
16892.467	656.487
16894.037	656.487
16903.932	656.487
16912.365	656.487
16919.443	656.487
16929.900	656.487
16939.842	656.487
16949.918	656.483
16967.215	656.483
16983.895	656.483
16995.990	656.483
17002.707	656.483
17018.320	656.483
17034.391	656.483
17054.178	656.483
17059.381	656.412
17073.320	656.412
17081.629	656.412
17104.508	656.412
17108.613	656.412
17112.857	656.412
17118.568	656.412
17136.555	656.412
17140.924	656.304
17140.582	656.304
17124.934	656.304
17104.244	656.304
17097.010	656.304
17083.703	656.304
17062.629	656.304
17036.355	656.304
17014.344	656.258
16990.453	656.258
16968.322	656.258
16948.525	656.258
16924.775	656.258
16912.051	656.258
16912.082	656.258
16906.842	656.258
16894.973	656.215
16882.955	656.215
16879.494	656.215
16877.941	656.215
16876.016	656.215
16873.631	656.215
16871.916	656.215
16869.980	656.215
16864.545	656.231
16863.150	656.231
16863.803	656.231
16868.156	656.231
16879.988	656.231
16879.297	656.231
16876.156	656.231
16881.742	656.231
16884.602	656.287
16884.777	656.287
16883.338	656.287
16888.389	656.287
16907.230	656.287
16904.018	656.287
16899.979	656.287
16899.852	656.287
16903.195	656.362
16906.988	656.362
16917.529	656.362
16910.713	656.362
16904.369	656.362
16905.400	656.362
16918.920	656.362
16918.213	656.362
16907.582	656.402
16901.549	656.402
16902.242	656.402
16905.918	656.402
16910.654	656.402
16908.752	656.402
16901.135	656.402
16903.229	656.402
16901.283	656.414
16888.754	656.414
16878.658	656.414
16873.898	656.414
16875.164	656.414
16879.771	656.414
16880.439	656.414
16873.820	656.414
16865.131	656.408
16861.344	656.408
16858.543	656.408
16852.576	656.408
16849.506	656.408
16849.799	656.408
16850.227	656.408
16848.219	656.408
16844.816	656.465
16831.168	656.465
16830.105	656.465
16829.588	656.465
16828.789	656.465
16828.818	656.465
16827.303	656.465
16820.377	656.465
16816.928	656.459
16818.037	656.459
16816.859	656.459
16811.047	656.459
16810.770	656.459
16812.848	656.459
16817.916	656.459
16815.043	656.459
16811.129	656.478
16806.174	656.478
16809.400	656.478
16811.342	656.478
16805.791	656.478
16804.324	656.478
16801.438	656.478
16797.811	656.478
16804.953	656.468
16806.553	656.468
16801.848	656.468
16816.045	656.468
16853.982	656.468
16893.271	656.468
16899.957	656.468
16888.094	656.468
16882.678	656.447
16884.725	656.447
16887.424	656.447
16898.229	656.447
16915.521	656.447
16912.779	656.447
16887.418	656.447
16866.242	656.447
16863.924	656.444
16865.352	656.444
16853.605	656.444
16828.457	656.444
16794.459	656.444
16778.117	656.444
16754.938	656.444
16768.473	656.444
16776.764	656.444
16774.684	656.444
16760.330	656.444
16759.170	656.444
16767.467	656.444
16773.061	656.444
16774.453	656.444
16774.002	656.444
16775.971	656.448
16776.645	656.448
16773.596	656.448
16773.232	656.448
16778.314	656.448
16823.975	656.448
16985.996	656.448
17323.426	656.448
17760.740	656.477
18091.197	656.477
18297.617	656.477
18529.727	656.477
18738.316	656.477
18706.553	656.477
18443.246	656.477
17954.373	656.477
17247.877	656.493
16665.070	656.493
16508.596	656.493
16635.127	656.493
16756.027	656.493
16806.109	656.493
16820.273	656.493
16814.029	656.493
16807.074	656.523
16806.471	656.523
16813.063	656.523
16812.604	656.523
16809.209	656.523
16807.010	656.523
16806.738	656.523
16804.721	656.523
16801.699	656.578
16801.488	656.578
16802.961	656.578
16807.400	656.578
16808.402	656.578
16808.285	656.578
16810.018	656.578
16811.205	656.578
16810.900	656.667
16816.691	656.667
16816.584	656.667
16806.305	656.667
16813.914	656.667
16827.822	656.667
16832.625	656.667
16837.479	656.667
16837.355	656.806
16838.799	656.806
16842.729	656.806
16849.271	656.806
16854.404	656.806
16861.025	656.806
16867.162	656.806
16872.441	656.806
16881.840	656.993
16887.063	656.993
16897.459	656.993
16912.021	656.993
16920.057	656.993
16929.891	656.993
16947.223	656.993
16965.813	656.993
16981.154	657.246
16990.150	657.246
17004.141	657.246
17024.326	657.246
17035.752	657.246
17044.971	657.246
17056.920	657.246
17065.178	657.246
17069.617	657.526
17072.451	657.526
17093.217	657.526
17107.248	657.526
17109.313	657.526
17107.861	657.526
17105.164	657.526
17101.518	657.526
17077.527	657.874
17056.719	657.874
17037.795	657.874
17028.219	657.874
16993.018	657.874
16969.223	657.874
16945.236	657.874
16933.402	657.874
16901.947	658.310
16888.484	658.310
16880.652	658.310
16870.375	658.310
16856.752	658.310
16843.521	658.310
16835.400	658.310
16838.268	658.310
16841.084	658.794
16838.197	658.794
16834.750	658.794
16826.285	658.794
16820.242	658.794
16823.490	658.794
16826.893	658.794
16822.869	658.794
16822.797	659.201
16826.063	659.201
16826.018	659.201
16825.736	659.201
16823.129	659.201
16822.646	659.201
16829.219	659.201
16834.215	659.201
16837.842	659.531
16840.533	659.531
16840.699	659.531
16841.967	659.531
16844.436	659.531
16842.764	659.531
16841.123	659.531
16841.047	659.531
16843.543	659.891
16838.678	659.891
16839.904	659.891
16849.900	659.891
16850.080	659.891
16832.479	659.891
16826.369	659.891
16821.061	659.891
16828.467	660.294
16828.953	660.294
16826.969	660.294
16821.225	660.294
16814.785	660.294
16807.254	660.294
16806.320	660.294
16802.297	660.294
16794.252	660.732
16787.516	660.732
16780.064	660.732
16777.051	660.732
16773.986	660.732
16765.584	660.732
16756.754	660.732
16750.297	660.732
16744.738	661.159
16743.109	661.159
16747.023	661.159
16745.994	661.159
16738.406	661.159
16733.275	661.159
16733.949	661.159
16731.117	661.159
16727.203	661.671
16723.830	661.671
16724.859	661.671
16728.115	661.671
16726.104	661.671
16722.711	661.671
16713.977	661.671
16708.951	661.671
16706.289	662.249
16707.273	662.249
16708.010	662.249
16707.035	662.249
16703.764	662.249
16704.199	662.249
16706.736	662.249
16706.854	662.249
16702.600	662.840
16701.180	662.840
16693.033	662.840
16700.773	662.840
16726.848	662.840
16744.707	662.840
16771.504	662.840
16769.918	662.840
16767.406	663.340
16762.764	663.340
16761.338	663.340
16763.938	663.340
16774.525	663.340
16781.133	663.340
16762.369	663.340
16738.283	663.340
16733.570	663.797
16737.436	663.797
16733.021	663.797
16715.646	663.797
16682.408	663.797
16640.957	663.797
16611.221	663.797
16613.430	663.797
16634.404	664.258
16644.025	664.258
16635.105	664.258
16627.902	664.258
16627.883	664.258
16622.850	664.258
16617.770	664.258
16628.076	664.258
16635.055	664.592
16641.941	664.592
16643.521	664.592
16634.783	664.592
16628.898	664.592
16640.396	664.592
16668.184	664.592
16950.893	664.592
17349.363	664.908
17792.914	664.908
17966.928	664.908
18310.891	664.908
18423.701	664.908
18660.096	664.908
18545.959	664.908
18215.861	664.908
17945.348	665.249
16873.322	665.249
16414.752	665.249
16373.744	665.249
16503.035	665.249
16592.469	665.249
16633.572	665.249
16663.234	665.249
16668.156	665.598
16662.277	665.598
16668.254	665.598
16673.021	665.598
16667.326	665.598
16666.746	665.598
16671.334	665.598
16671.701	665.598
16667.570	666.005
16665.535	666.005
16669.070	666.005
16675.217	666.005
16674.164	666.005
16672.236	666.005
16673.863	666.005
16673.012	666.005
16671.010	666.347
16672.654	666.347
16683.398	666.347
16685.277	666.347
16683.916	666.347
16684.908	666.347
16689.906	666.347
16691.434	666.347
16696.391	666.670
16696.000	666.670
16698.279	666.670
16700.090	666.670
16711.639	666.670
16714.943	666.670
16717.133	666.670
16723.432	666.670
16732.846	666.987
16737.723	666.987
16749.430	666.987
16764.273	666.987
16781.910	666.987
16786.953	666.987
16789.723	666.987
16800.740	666.987
16821.260	667.359
16843.186	667.359
16859.885	667.359
16874.295	667.359
16888.545	667.359
16905.459	667.359
16914.371	667.359
16923.793	667.359
16936.688	667.660
16942.381	667.660
16947.568	667.660
16960.820	667.660
16971.547	667.660
16973.855	667.660
16970.371	667.660
16963.242	667.660
16951.012	667.888
16935.893	667.888
16922.777	667.888
16903.602	667.888
16891.117	667.888
16853.014	667.888
16830.973	667.888
16807.713	667.888
16796.396	668.126
16771.127	668.126
16766.125	668.126
16746.762	668.126
16733.008	668.126
16724.170	668.126
16722.215	668.126
16716.283	668.126
16714.592	668.424
16711.291	668.424
16702.582	668.424
16693.557	668.424
16693.027	668.424
16701.244	668.424
16701.381	668.424
16699.492	668.424
16697.334	668.708
16700.217	668.708
16701.535	668.708
16698.512	668.708
16695.344	668.708
16700.920	668.708
16709.340	668.708
16710.652	668.708
16709.141	668.985
16708.049	668.985
16711.404	668.985
16715.688	668.985
16719.010	668.985
16723.369	668.985
16726.137	668.985
16723.947	668.985
16723.770	669.265
16725.027	669.265
16724.217	669.265
16725.268	669.265
16726.525	669.265
16725.994	669.265
16729.008	669.265
16730.049	669.265
16724.098	669.573
16721.955	669.573
16713.869	669.573
16710.453	669.573
16714.080	669.573
16717.232	669.573
16715.805	669.573
16712.898	669.573
16693.846	669.838
16687.258	669.838
16689.137	669.838
16696.973	669.838
16693.287	669.838
16687.609	669.838
16674.072	669.838
16671.813	669.838
16669.512	670.125
16669.791	670.125
16668.932	670.125
16666.570	670.125
16659.811	670.125
16648.508	670.125
16648.057	670.125
16653.152	670.125
16650.266	670.397
16644.307	670.397
16638.902	670.397
16631.764	670.397
16629.523	670.397
16632.965	670.397
16639.822	670.397
16641.090	670.397
16633.814	670.657
16631.381	670.657
16629.727	670.657
16622.328	670.657
16630.139	670.657
16659.459	670.657
16692.779	670.657
16702.797	670.657
16700.754	670.896
16696.334	670.896
16698.943	670.896
16697.953	670.896
16696.324	670.896
16718.502	670.896
16740.291	670.896
16727.584	670.896
16709.738	671.108
16677.076	671.108
16679.209	671.108
16678.316	671.108
16662.193	671.108
16631.012	671.108
16612.094	671.108
16576.406	671.108
16574.184	671.306
16585.500	671.306
16594.744	671.306
16593.693	671.306
16586.764	671.306
16582.861	671.306
16587.443	671.306
16596.502	671.306
16600.256	671.530
16599.471	671.530
16599.135	671.530
16599.326	671.530
16596.869	671.530
16596.457	671.530
16595.844	671.530
16623.730	671.530
16763.740	671.767
17082.270	671.767
17525.715	671.767
17911.426	671.767
18163.746	671.767
18396.410	671.767
18604.918	671.767
18616.107	671.767
18406.396	672.032
17944.643	672.032
17223.779	672.032
16574.311	672.032
16330.078	672.032
16346.104	672.032
16514.266	672.032
16546.961	672.032
16607.605	672.282
16632.762	672.282
16630.051	672.282
16624.949	672.282
16627.660	672.282
16634.574	672.282
16631.244	672.282
16628.980	672.282
16627.996	672.566
16629.465	672.566
16631.656	672.566
16629.490	672.566
16631.738	672.566
16632.586	672.566
16629.406	672.566
16626.514	672.566
16630.902	672.798
16640.770	672.798
16648.535	672.798
16648.191	672.798
16642.295	672.798
16638.771	672.798
16641.176	672.798
16644.176	672.798
16643.477	672.991
16647.727	672.991
16655.752	672.991
16659.828	672.991
16661.492	672.991
16665.213	672.991
16672.982	672.991
16679.594	672.991
16686.664	673.138
16697.648	673.138
16700.830	673.138
16706.650	673.138
16720.684	673.138
16734.363	673.138
16741.500	673.138
16750.313	673.138
16760.289	673.378
16791.273	673.378
16798.982	673.378
16819.141	673.378
16829.818	673.378
16846.906	673.378
16856.201	673.378
16885.139	673.378
16894.744	673.558
16900.727	673.558
16906.344	673.558
16923.357	673.558
16926.514	673.558
16929.053	673.558
16927.791	673.558
16934.119	673.558
16932.689	673.699
16914.980	673.699
16895.137	673.699
16877.211	673.699
16853.447	673.699
16828.902	673.699
16806.992	673.699
16782.072	673.699
16760.182	673.838
16738.367	673.838
16716.229	673.838
16703.070	673.838
16696.623	673.838
16689.623	673.838
16677.393	673.838
16663.547	673.838
16655.088	674.007
16653.068	674.007
16656.643	674.007
16657.039	674.007
16651.125	674.007
16645.053	674.007
16649.746	674.007
16657.666	674.007
16658.748	674.125
16656.998	674.125
16652.553	674.125
16654.676	674.125
16655.943	674.125
16656.641	674.125
16661.906	674.125
16661.766	674.125
16651.713	674.277
16655.619	674.277
16661.199	674.277
16663.617	674.277
16671.131	674.277
16672.369	674.277
16674.217	674.277
16679.104	674.277
16680.730	674.388
16679.492	674.388
16674.098	674.388
16677.928	674.388
16684.125	674.388
16682.941	674.388
16679.305	674.388
16677.816	674.388
16683.035	674.530
16690.752	674.530
16692.971	674.530
16687.764	674.530
16678.922	674.530
16675.428	674.530
16680.656	674.530
16683.365	674.530
16680.479	674.642
16672.605	674.642
16668.451	674.642
16667.072	674.642
16662.738	674.642
16658.443	674.642
16659.092	674.642
16657.652	674.642
16650.686	674.765
16643.762	674.765
16645.066	674.765
16644.008	674.765
16643.027	674.765
16642.615	674.765
16642.668	674.765
16638.691	674.765
16635.053	674.862
16629.988	674.862
16629.881	674.862
16625.609	674.862
16623.990	674.862
16623.303	674.862
16623.258	674.862
16621.600	674.862
16620.758	674.953
16622.607	674.953
16622.697	674.953
16621.559	674.953
16626.342	674.953
16669.402	674.953
16695.262	674.953
16697.480	674.953
16693.781	674.993
16697.842	674.993
16696.990	674.993
16710.279	674.993
16725.805	674.993
16731.459	674.993
16730.031	674.993
16712.904	674.993
16696.396	675.006
16693.248	675.006
16686.049	675.006
16672.453	675.006
16644.779	675.006
16602.992	675.006
16572.576	675.006
16567.543	675.006
16573.396	674.987
16585.012	674.987
16589.398	674.987
16583.709	674.987
16579.121	674.987
16580.715	674.987
16590.875	674.987
16595.119	674.987
16596.283	675.022
16593.930	675.022
16591.014	675.022
16594.846	675.022
16600.877	675.022
16591.646	675.022
16584.326	675.022
16590.412	675.022
16743.633	675.108
16868.613	675.108
17475.773	675.108
17872.037	675.108
18127.828	675.108
18241.824	675.108
18584.609	675.108
18634.289	675.108
18455.883	675.182
18037.082	675.182
17322.816	675.182
16632.867	675.182
16342.700	675.182
16403.146	675.182
16525.264	675.182
16579.096	675.182
16605.266	675.268
16628.742	675.268
16631.064	675.268
16625.527	675.268
16618.990	675.268
16617.621	675.268
16619.787	675.268
16621.953	675.268
16623.676	675.423
16625.594	675.423
16627.227	675.423
16630.613	675.423
16627.854	675.423
16624.904	675.423
16631.082	675.423
16638.682	675.423
16644.482	675.527
16648.313	675.527
16647.211	675.527
16642.430	675.527
16641.598	675.527
16642.973	675.527
16643.084	675.527
16645.686	675.527
16647.516	675.555
16651.113	675.555
16653.709	675.555
16659.605	675.555
16662.076	675.555
16669.559	675.555
16674.223	675.555
16679.043	675.555
16678.100	675.568
16684.203	675.568
16699.695	675.568
16712.859	675.568
16717.748	675.568
16726.521	675.568
16741.479	675.568
16755.055	675.568
16766.008	675.705
16777.705	675.705
16792.232	675.705
16812.029	675.705
16832.652	675.705
16854.412	675.705
16870.844	675.705
16884.402	675.705
16893.389	675.875
16902.852	675.875
16915.318	675.875
16927.830	675.875
16935.561	675.875
16937.768	675.875
16935.799	675.875
16934.520	675.875
16932.590	675.951
16921.426	675.951
16900.186	675.951
16873.988	675.951
16845.926	675.951
16832.410	675.951
16797.430	675.951
16772.488	675.951
16748.100	676.035
16740.516	676.035
16718.049	676.035
16706.893	676.035
16678.053	676.035
16663.590	676.035
16654.977	676.035
16651.084	676.035
16636.807	676.205
16630.150	676.205
16630.346	676.205
16631.443	676.205
16624.910	676.205
16621.203	676.205
16619.441	676.205
16623.465	676.205
16625.924	676.341
16622.059	676.341
16615.469	676.341
16614.232	676.341
16615.951	676.341
16612.039	676.341
16606.201	676.341
16604.271	676.341
16611.418	676.505
16618.990	676.505
16621.693	676.505
16618.857	676.505
16614.318	676.505
16614.896	676.505
16621.330	676.505
16623.191	676.505
16621.449	676.589
16619.531	676.589
16617.975	676.589
16622.324	676.589
16634.500	676.589
16641.910	676.589
16640.699	676.589
16631.385	676.589
16628.494	676.646
16631.977	676.646
16633.086	676.646
16629.816	676.646
16630.375	676.646
16629.793	676.646
16630.232	676.646
16630.037	676.646
16623.961	676.659
16621.568	676.659
16621.631	676.659
16619.904	676.659
16612.949	676.659
16607.420	676.659
16608.314	676.659
16608.170	676.659
16599.518	676.743
16594.137	676.743
16595.668	676.743
16596.951	676.743
16590.070	676.743
16583.811	676.743
16585.607	676.743
16592.922	676.743
16594.689	676.803
16589.184	676.803
16582.326	676.803
16577.973	676.803
16577.797	676.803
16580.121	676.803
16580.471	676.803
16580.225	676.803
16577.564	676.865
16569.816	676.865
16568.549	676.865
16572.039	676.865
16570.563	676.865
16573.236	676.865
16575.516	676.865
16572.693	676.865
16582.303	676.917
16593.941	676.917
16626.346	676.917
16638.867	676.917
16650.232	676.917
16654.395	676.917
16662.939	676.917
16660.563	676.917
16665.305	676.928
16670.277	676.928
16693.111	676.928
16697.531	676.928
16673.123	676.928
16649.855	676.928
16642.811	676.928
16643.723	676.928
16644.215	676.916
16637.398	676.916
16585.133	676.916
16543.330	676.916
16529.658	676.916
16546.162	676.916
16560.885	676.916
16558.943	676.916
16550.572	676.930
16547.105	676.930
16548.943	676.930
16555.447	676.930
16562.285	676.930
16566.074	676.930
16568.146	676.930
16569.805	676.930
16571.797	676.968
16566.242	676.968
16557.744	676.968
16557.918	676.968
16583.520	676.968
16691.086	676.968
16961.756	676.968
17389.604	676.968
17798.537	677.054
18068.697	677.054
18184.959	677.054
18544.174	677.054
18623.580	677.054
18489.982	677.054
18343.018	677.054
17430.072	677.054
17040.441	677.126
16338.991	677.126
16376.786	677.126
16515.365	677.126
16559.521	677.126
16603.189	677.126
16610.510	677.126
16609.871	677.126
16611.535	677.217
16619.680	677.217
16622.301	677.217
16629.354	677.217
16627.328	677.217
16621.580	677.217
16612.447	677.217
16614.541	677.217
16627.043	677.289
16633.363	677.289
16631.816	677.289
16632.238	677.289
16631.291	677.289
16628.695	677.289
16633.297	677.289
16640.549	677.289
16645.402	677.271
16649.854	677.271
16653.656	677.271
16658.230	677.271
16664.428	677.271
16663.635	677.271
16663.717	677.271
16667.246	677.271
16670.352	677.221
16676.447	677.221
16681.926	677.221
16689.084	677.221
16694.246	677.221
16697.078	677.221
16708.928	677.221
16717.154	677.221
16728.191	677.289
16732.969	677.289
16748.713	677.289
16756.551	677.289
16780.352	677.289
16790.447	677.289
16805.977	677.289
16814.490	677.289
16839.469	677.420
16848.178	677.420
16868.619	677.420
16890.496	677.420
16909.162	677.420
16915.957	677.420
16937.863	677.420
16954.373	677.420
16963.283	677.486
16971.641	677.486
16979.041	677.486
16978.799	677.486
16973.811	677.486
16967.680	677.486
16957.207	677.486
16943.268	677.486
16915.908	677.518
16884.779	677.518
16860.697	677.518
16836.955	677.518
16812.139	677.518
16788.109	677.518
16762.883	677.518
16738.504	677.518
16725.543	677.569
16718.740	677.569
16707.146	677.569
16696.504	677.569
16688.209	677.569
16677.689	677.569
16672.910	677.569
16673.975	677.569
16673.615	677.637
16671.850	677.637
16670.926	677.637
16667.217	677.637
16665.322	677.637
16664.668	677.637
16672.230	677.637
16678.916	677.637
16680.277	677.692
16676.883	677.692
16676.531	677.692
16677.174	677.692
16677.979	677.692
16681.854	677.692
16680.428	677.692
16678.850	677.692
16681.549	677.767
16683.910	677.767
16693.035	677.767
16697.602	677.767
16695.818	677.767
16697.311	677.767
16702.871	677.767
16712.535	677.767
16714.717	677.852
16708.018	677.852
16713.945	677.852
16723.316	677.852
16725.773	677.852
16718.811	677.852
16708.133	677.852
16709.752	677.852
16721.418	677.938
16723.752	677.938
16716.850	677.938
16714.010	677.938
16714.340	677.938
16714.258	677.938
16715.020	677.938
16712.707	677.938
16707.473	678.071
16701.889	678.071
16695.855	678.071
16695.814	678.071
16704.533	678.071
16703.848	678.071
16687.789	678.071
16690.133	678.071
16691.766	678.178
16690.391	678.178
16686.654	678.178
16684.816	678.178
16685.646	678.178
16688.131	678.178
16683.842	678.178
16680.363	678.178
16674.629	678.274
16680.303	678.274
16681.637	678.274
16679.350	678.274
16675.928	678.274
16678.266	678.274
16686.221	678.274
16689.012	678.274
16680.568	678.363
16671.037	678.363
16673.723	678.363
16682.328	678.363
16679.902	678.363
16677.303	678.363
16679.178	678.363
16680.727	678.363
16684.377	678.448
16686.949	678.448
16682.434	678.448
16679.980	678.448
16693.061	678.448
16719.699	678.448
16745.377	678.448
16755.289	678.448
16762.000	678.495
16766.553	678.495
16764.980	678.495
16767.934	678.495
16778.234	678.495
16795.426	678.495
16799.020	678.495
16778.953	678.495
16763.865	678.516
16745.094	678.516
16742.426	678.516
16741.020	678.516
16737.648	678.516
16692.414	678.516
16673.609	678.516
16640.512	678.516
16643.893	678.528
16650.680	678.528
16652.057	678.528
16647.113	678.528
16644.268	678.528
16641.506	678.528
16652.771	678.528
16660.486	678.528
16656.170	678.573
16650.668	678.573
16660.326	678.573
16666.908	678.573
16665.475	678.573
16660.098	678.573
16648.936	678.573
16646.400	678.573
16704.945	678.623
16897.016	678.623
17272.188	678.623
17719.406	678.623
18039.619	678.623
18282.393	678.623
18534.230	678.623
18696.213	678.623
18655.826	678.695
18412.932	678.695
17852.246	678.695
17072.531	678.695
16514.059	678.695
16402.031	678.695
16529.045	678.695
16630.516	678.695
16658.426	678.795
16666.902	678.795
16685.949	678.795
16687.031	678.795
16688.393	678.795
16690.688	678.795
16687.588	678.795
16684.223	678.795
16684.260	678.923
16681.500	678.923
16676.955	678.923
16678.549	678.923
16685.727	678.923
16685.457	678.923
16683.730	678.923
16681.559	678.923
16682.281	678.975
16684.973	678.975
16685.096	678.975
16680.016	678.975
16683.887	678.975
16694.723	678.975
16700.813	678.975
16704.578	678.975
16709.678	679.078
16707.033	679.078
16702.809	679.078
16706.891	679.078
16715.191	679.078
16720.885	679.078
16726.971	679.078
16728.521	679.078
16731.898	679.209
16746.057	679.209
16757.477	679.209
16764.609	679.209
16776.758	679.209
16790.191	679.209
16797.570	679.209
16808.568	679.209
16830.201	679.476
16851.186	679.476
16858.701	679.476
16877.961	679.476
16895.703	679.476
16917.283	679.476
16928.943	679.476
16962.059	679.476
16967.189	679.615
16976.393	679.615
16993.791	679.615
17013.313	679.615
17022.883	679.615
17038.945	679.615
17039.463	679.615
17035.410	679.615
17031.008	679.675
17016.186	679.675
17005.781	679.675
16975.514	679.675
16949.869	679.675
16925.666	679.675
16900.586	679.675
16872.260	679.675
16846.912	679.796
16824.732	679.796
16810.893	679.796
16787.807	679.796
16762.914	679.796
16750.723	679.796
16745.361	679.796
16744.004	679.796
16740.170	679.918
16734.549	679.918
16730.717	679.918
16726.033	679.918
16717.449	679.918
16719.889	679.918
16725.842	679.918
16719.877	679.918
16713.611	680.015
16712.592	680.015
16711.797	680.015
16716.213	680.015
16721.332	680.015
16721.564	680.015
16719.289	680.015
16719.725	680.015
16721.379	680.149
16719.840	680.149
16720.484	680.149
16718.469	680.149
16718.729	680.149
16731.549	680.149
16736.779	680.149
16735.604	680.149
16729.924	680.177
16730.828	680.177
16738.945	680.177
16741.936	680.177
16740.156	680.177
16740.154	680.177
16746.266	680.177
16750.527	680.177
16753.785	680.191
16752.422	680.191
16748.316	680.191
16744.393	680.191
16745.383	680.191
16750.943	680.191
16752.832	680.191
16747.695	680.191
16741.070	680.064
16740.709	680.064
16738.900	680.064
16728.451	680.064
16721.820	680.064
16721.018	680.064
16719.752	680.064
16720.299	680.064
16724.949	679.867
16720.695	679.867
16705.492	679.867
16697.385	679.867
16708.262	679.867
16716.889	679.867
16712.668	679.867
16706.416	679.867
16699.211	679.560
16689.535	679.560
16686.279	679.560
16693.105	679.560
16696.723	679.560
16692.785	679.560
16691.201	679.560
16692.801	679.560
16693.893	679.180
16685.691	679.180
16680.119	679.180
16676.713	679.180
16678.064	679.180
16676.006	679.180
16676.625	679.180
16683.004	679.180
16685.303	678.871
16679.912	678.871
16676.584	678.871
16673.680	678.871
16666.779	678.871
16672.018	678.871
16682.039	678.871
16682.238	678.871
16681.049	678.546
16679.787	678.546
16676.369	678.546
16671.760	678.546
16677.291	678.546
16694.119	678.546
16718.182	678.546
16744.027	678.546
16758.314	678.304
16756.184	678.304
16761.770	678.304
16774.979	678.304
16776.719	678.304
16780.617	678.304
16795.117	678.304
16809.729	678.304
16805.281	678.101
16794.650	678.101
16758.707	678.101
16758.309	678.101
16762.531	678.101
16761.994	678.101
16744.324	678.101
16727.441	678.101
16667.703	677.936
16655.682	677.936
16666.375	677.936
16673.564	677.936
16679.463	677.936
16676.410	677.936
16665.367	677.936
16669.922	677.936
16676.832	677.845
16676.443	677.845
16671.854	677.845
16676.793	677.845
16683.221	677.845
16687.514	677.845
16690.393	677.845
16688.719	677.845
16678.727	677.741
16684.051	677.741
16760.605	677.741
16984.188	677.741
17375.521	677.741
17786.744	677.741
18068.332	677.741
18312.207	677.741
18571.553	677.641
18709.900	677.641
18645.994	677.641
18385.824	677.641
17804.078	677.641
17027.945	677.641
16514.350	677.641
16465.289	677.641
16612.965	677.487
16697.904	677.487
16722.211	677.487
16742.471	677.487
16745.271	677.487
16737.902	677.487
16736.381	677.487
16737.914	677.487
16735.057	677.303
16729.844	677.303
16727.758	677.303
16729.965	677.303
16733.348	677.303
16740.635	677.303
16738.977	677.303
16738.213	677.303
16738.383	677.066
16741.654	677.066
16741.375	677.066
16734.293	677.066
16735.014	677.066
16744.123	677.066
16753.652	677.066
16758.273	677.066
16755.457	676.807
16750.215	676.807
16750.914	676.807
16756.340	676.807
16763.117	676.807
16766.010	676.807
16770.664	676.807
16781.080	676.807
16788.982	676.480
16794.363	676.480
16800.070	676.480
16805.104	676.480
16808.441	676.480
16816.127	676.480
16827.523	676.480
16840.885	676.480
16857.430	676.291
16877.990	676.291
16898.188	676.291
16911.578	676.291
16917.533	676.291
16928.648	676.291
16954.533	676.291
16971.166	676.291
17008.428	676.125
17016.695	676.125
17042.131	676.125
17055.469	676.125
17066.697	676.125
17071.746	676.125
17092.928	676.125
17108.020	676.125
17115.674	675.877
17116.631	675.877
17104.859	675.877
17097.822	675.877
17075.924	675.877
17058.307	675.877
17036.488	675.877
17023.498	675.877
16981.051	675.604
16951.529	675.604
16921.947	675.604
16897.123	675.604
16876.098	675.604
16855.271	675.604
16834.559	675.604
16822.783	675.604
16813.338	675.366
16803.176	675.366
16797.982	675.366
16798.623	675.366
16798.523	675.366
16796.469	675.366
16792.146	675.366
16785.969	675.366
16782.262	675.170
16782.766	675.170
16777.736	675.170
16777.984	675.170
16787.240	675.170
16791.475	675.170
16791.766	675.170
16789.633	675.170
16787.789	675.007
16783.953	675.007
16784.645	675.007
16783.664	675.007
16782.834	675.007
16779.453	675.007
16780.318	675.007
16793.203	675.007
16798.459	674.864
16798.930	674.864
16799.211	674.864
16795.461	674.864
16790.758	674.864
16790.887	674.864
16802.035	674.864
16808.773	674.864
16809.711	674.679
16808.582	674.679
16808.500	674.679
16809.719	674.679
16808.955	674.679
16806.912	674.679
16803.104	674.679
16800.789	674.679
16806.188	674.497
16808.547	674.497
16803.820	674.497
16796.861	674.497
16790.936	674.497
16787.465	674.497
16789.045	674.497
16788.861	674.497
16781.328	674.332
16773.086	674.332
16774.910	674.332
16775.918	674.332
16769.820	674.332
16762.541	674.332
16762.205	674.332
16764.412	674.332
16764.361	674.182
16759.506	674.182
16756.748	674.182
16757.303	674.182
16752.873	674.182
16755.158	674.182
16759.768	674.182
16758.094	674.182
16748.219	673.937
16746.678	673.937
16747.326	673.937
16750.760	673.937
16752.436	673.937
16751.426	673.937
16748.189	673.937
16748.953	673.937
16749.031	673.687
16745.506	673.687
16742.824	673.687
16742.682	673.687
16745.832	673.687
16747.684	673.687
16745.234	673.687
16739.361	673.687
16732.182	673.439
16732.436	673.439
16739.527	673.439
16744.879	673.439
16744.240	673.439
16742.592	673.439
16739.227	673.439
16732.094	673.439
16729.861	673.192
16737.102	673.192
16743.980	673.192
16744.895	673.192
16741.752	673.192
16738.322	673.192
16738.160	673.192
16737.814	673.192
16737.070	672.932
16735.424	672.932
16735.406	672.932
16735.521	672.932
16734.004	672.932
16737.518	672.932
16739.813	672.932
16744.705	672.932
16761.307	672.613
16790.373	672.613
16801.863	672.613
16818.746	672.613
16822.756	672.613
16831.109	672.613
16825.912	672.613
16823.061	672.613
16825.406	672.331
16836.230	672.331
16833.158	672.331
16814.584	672.331
16804.357	672.331
16800.535	672.331
16800.453	672.331
16786.039	672.331
16771.643	672.053
16742.162	672.053
16704.068	672.053
16688.869	672.053
16699.133	672.053
16713.777	672.053
16720.338	672.053
16714.641	672.053
16702.787	671.818
16702.738	671.818
16707.063	671.818
16711.561	671.818
16718.953	671.818
16724.947	671.818
16724.568	671.818
16721.627	671.818
16716.951	671.577
16710.082	671.577
16704.641	671.577
16717.465	671.577
16812.893	671.577
17070.582	671.577
17479.695	671.577
17678.594	671.577
18067.436	671.342
18318.424	671.342
18575.488	671.342
18649.670	671.342
18547.865	671.342
18428.439	671.342
17652.545	671.342
16942.043	671.342
16524.320	671.123
16490.137	671.123
16695.480	671.123
16748.324	671.123
16789.635	671.123
16781.598	671.123
16776.014	671.123
16774.629	671.123
16764.383	670.891
16762.131	670.891
16761.867	670.891
16762.725	670.891
16763.123	670.891
16764.322	670.891
16768.299	670.891
16769.797	670.891
16766.523	670.703
16765.656	670.703
16767.289	670.703
16765.623	670.703
16769.354	670.703
16779.697	670.703
16782.145	670.703
16780.016	670.703
16784.791	670.517
16792.275	670.517
16797.838	670.517
16797.646	670.517
16795.969	670.517
16800.979	670.517
16810.828	670.517
16813.631	670.517
16814.768	670.282
16817.713	670.282
16823.826	670.282
16829.207	670.282
16831.797	670.282
16843.334	670.282
16847.816	670.282
16865.205	670.282
16875.918	670.033
16885.801	670.033
16892.885	670.033
16920.436	670.033
16927.654	670.033
16955.146	670.033
16974.279	670.033
16992.650	670.033
17002.084	669.779
17034.762	669.779
17047.119	669.779
17073.510	669.779
17085.592	669.779
17098.531	669.779
17119.914	669.779
17143.766	669.779
17160.273	669.510
17169.402	669.510
17173.012	669.510
17172.799	669.510
17170.207	669.510
17163.688	669.510
17147.379	669.510
17122.818	669.510
17097.637	669.266
17070.418	669.266
17038.521	669.266
17007.213	669.266
16978.488	669.266
16952.883	669.266
16927.652	669.266
16903.305	669.266
16890.158	669.044
16881.820	669.044
16871.809	669.044
16864.078	669.044
16853.895	669.044
16841.865	669.044
16836.793	669.044
16836.223	669.044
16833.867	668.858
16833.156	668.858
16827.594	668.858
16825.264	668.858
16826.846	668.858
16828.467	668.858
16832.418	668.858
16834.049	668.858
16832.182	668.708
16829.926	668.708
16830.533	668.708
16833.035	668.708
16835.043	668.708
16837.236	668.708
16839.068	668.708
16841.533	668.708
16846.229	668.592
16841.727	668.592
16833.373	668.592
16832.809	668.592
16842.248	668.592
16849.510	668.592
16848.988	668.592
16843.508	668.592
16841.779	668.504
16842.018	668.504
16839.295	668.504
16842.865	668.504
16845.453	668.504
16840.557	668.504
16840.145	668.504
16839.648	668.504
16829.875	668.421
16829.785	668.421
16832.271	668.421
16826.596	668.421
16822.990	668.421
16824.697	668.421
16824.920	668.421
16818.639	668.421
16813.689	668.342
16809.711	668.342
16808.430	668.342
16809.781	668.342
16808.391	668.342
16804.076	668.342
16802.777	668.342
16803.047	668.342
16801.381	668.256
16790.254	668.256
16789.014	668.256
16787.223	668.256
16787.600	668.256
16794.068	668.256
16793.418	668.256
16786.898	668.256
16782.277	668.137
16779.748	668.137
16779.572	668.137
16778.518	668.137
16779.188	668.137
16782.066	668.137
16780.273	668.137
16776.998	668.137
16778.482	667.976
16779.820	667.976
16778.992	667.976
16776.432	667.976
16766.686	667.976
16762.285	667.976
16768.070	667.976
16768.762	667.976
16766.615	667.832
16763.834	667.832
16765.508	667.832
16766.699	667.832
16768.324	667.832
16769.336	667.832
16764.699	667.832
16758.025	667.832
16757.311	667.699
16755.691	667.699
16756.859	667.699
16764.932	667.699
16767.037	667.699
16765.014	667.699
16760.322	667.699
16759.379	667.699
16761.305	667.569
16762.275	667.569
16759.172	667.569
16760.484	667.569
16762.266	667.569
16762.514	667.569
16762.545	667.569
16762.615	667.569
16758.979	667.460
16758.014	667.460
16755.877	667.460
16755.584	667.460
16764.322	667.460
16771.928	667.460
16775.234	667.460
16775.016	667.460
16788.139	667.372
16820.736	667.372
16851.441	667.372
16863.734	667.372
16866.479	667.372
16865.084	667.372
16855.527	667.372
16845.895	667.372
16852.227	667.283
16870.807	667.283
16868.316	667.283
16833.547	667.283
16812.797	667.283
16828.004	667.283
16839.980	667.283
16830.031	667.283
16806.965	667.227
16773.350	667.227
16740.297	667.227
16724.141	667.227
16726.061	667.227
16754.105	667.227
16757.291	667.227
16749.906	667.227
16746.096	667.166
16740.326	667.166
16740.107	667.166
16742.545	667.166
16747.063	667.166
16753.680	667.166
16755.883	667.166
16758.367	667.166
16757.646	667.107
16746.783	667.107
16749.836	667.107
16809.346	667.107
16889.402	667.107
17398.139	667.107
17610.039	667.107
18051.699	667.107
18281.111	666.985
18542.740	666.985
18687.787	666.985
18598.818	666.985
18339.045	666.985
17827.916	666.985
17129.830	666.985
16620.098	666.985
16546.201	666.830
16696.627	666.830
16800.326	666.830
16827.629	666.830
16824.492	666.830
16816.768	666.830
16809.607	666.830
16809.525	666.830
16810.340	666.666
16805.197	666.666
16799.182	666.666
16798.250	666.666
16802.975	666.666
16808.775	666.666
16806.893	666.666
16803.750	666.666
16802.104	666.558
16806.252	666.558
16802.371	666.558
16801.756	666.558
16809.900	666.558
16811.898	666.558
16811.910	666.558
16813.525	666.558
16816.270	666.465
16815.871	666.465
16826.711	666.465
16833.576	666.465
16833.971	666.465
16833.871	666.465
16836.604	666.465
16838.813	666.465
16854.340	666.313
16863.557	666.313
16868.107	666.313
16872.539	666.313
16872.635	666.313
16877.289	666.313
16885.230	666.313
16895.074	666.313
16912.652	666.150
16928.406	666.150
16937.475	666.150
16951.252	666.150
16973.133	666.150
16995.176	666.150
17011.125	666.150
17028.459	666.150
17048.018	665.968
17067.906	665.968
17087.695	665.968
17104.697	665.968
17119.576	665.968
17136.049	665.968
17146.557	665.968
17159.926	665.968
17183.857	665.768
17199.332	665.768
17202.770	665.768
17205.967	665.768
17200.836	665.768
17184.498	665.768
17175.127	665.768
17147.754	665.768
17121.182	665.585
17085.277	665.585
17069.686	665.585
17037.328	665.585
17026.404	665.585
16989.023	665.585
16962.980	665.585
16943.789	665.585
16936.600	665.423
16916.479	665.423
16909.162	665.423
16891.578	665.423
16889.127	665.423
16888.600	665.423
16887.217	665.423
16884.275	665.423
16879.461	665.287
16878.594	665.287
16881.668	665.287
16882.326	665.287
16885.816	665.287
16886.908	665.287
16887.768	665.287
16888.760	665.287
16889.014	665.174
16887.314	665.174
16881.447	665.174
16883.703	665.174
16893.271	665.174
16899.672	665.174
16902.291	665.174
16899.084	665.174
16898.195	665.108
16900.254	665.108
16896.271	665.108
16897.000	665.108
16905.822	665.108
16910.154	665.108
16907.096	665.108
16904.467	665.108
16895.150	665.054
16894.566	665.054
16902.521	665.054
16904.004	665.054
16901.369	665.054
16899.150	665.054
16891.645	665.054
16889.961	665.054
16880.877	664.981
16871.551	664.981
16870.305	664.981
16872.830	664.981
16882.086	664.981
16883.025	664.981
16877.549	664.981
16866.750	664.981
16855.871	664.909
16847.441	664.909
16848.758	664.909
16856.379	664.909
16856.730	664.909
16847.621	664.909
16838.891	664.909
16840.088	664.909
16842.404	664.849
16840.777	664.849
16833.547	664.849
16830.197	664.849
16822.539	664.849
16817.402	664.849
16822.986	664.849
16826.928	664.849
16823.602	664.772
16813.635	664.772
16809.154	664.772
16812.391	664.772
16813.035	664.772
16812.775	664.772
16812.910	664.772
16813.738	664.772
16810.895	664.673
16804.736	664.673
16800.865	664.673
16794.334	664.673
16795.811	664.673
16805.156	664.673
16801.973	664.673
16798.600	664.673
16798.162	664.584
16801.664	664.584
16806.502	664.584
16801.574	664.584
16797.910	664.584
16796.150	664.584
16795.949	664.584
16796.697	664.584
16799.889	664.482
16795.908	664.482
16795.123	664.482
16803.904	664.482
16805.342	664.482
16804.135	664.482
16804.873	664.482
16800.502	664.482
16795.732	664.365
16795.580	664.365
16802.609	664.365
16805.906	664.365
16801.189	664.365
16798.686	664.365
16793.850	664.365
16790.246	664.365
16796.789	664.254
16806.117	664.254
16810.109	664.254
16807.449	664.254
16799.447	664.254
16793.055	664.254
16795.645	664.254
16808.414	664.254
16828.662	664.165
16859.664	664.165
16889.914	664.165
16898.697	664.165
16891.861	664.165
16888.887	664.165
16892.529	664.165
16898.748	664.165
16908.023	664.109
16915.260	664.109
16928.133	664.109
16917.086	664.109
16877.162	664.109
16882.643	664.109
16891.768	664.109
16890.928	664.109
16855.775	664.052
16835.963	664.052
16791.357	664.052
16783.840	664.052
16793.521	664.052
16807.607	664.052
16809.348	664.052
16800.660	664.052
16792.213	663.995
16796.199	663.995
16804.875	663.995
16806.662	663.995
16806.002	663.995
16805.480	663.995
16803.238	663.995
16799.609	663.995
16797.254	663.909
16792.248	663.909
16811.852	663.909
16932.021	663.909
17218.273	663.909
17634.414	663.909
17979.525	663.909
18199.006	663.909
18442.967	663.871
18678.811	663.871
18714.420	663.871
18533.957	663.871
18165.404	663.871
17528.160	663.871
17171.406	663.871
16549.744	663.871
16621.887	663.807
16766.377	663.807
16809.027	663.807
16859.307	663.807
16861.939	663.807
16853.348	663.807
16851.465	663.807
16842.422	663.807
16834.459	663.748
16837.338	663.748
16841.021	663.748
16843.961	663.748
16841.170	663.748
16840.430	663.748
16846.631	663.748
16850.861	663.748
16844.438	663.727
16849.313	663.727
16863.264	663.727
16866.141	663.727
16869.791	663.727
16870.061	663.727
16866.977	663.727
16868.221	663.727
16868.348	663.706
16873.623	663.706
16885.098	663.706
16888.746	663.706
16891.896	663.706
16895.203	663.706
16894.982	663.706
16892.768	663.706
16896.496	663.618
16907.590	663.618
16915.896	663.618
16923.186	663.618
16930.020	663.618
16935.533	663.618
16939.279	663.618
16938.748	663.618
16950.471	663.546
16962.326	663.546
16995.807	663.546
17008.563	663.546
17019.369	663.546
17026.137	663.546
17051.168	663.546
17059.633	663.546
17087.074	663.441
17107.697	663.441
17124.801	663.441
17130.820	663.441
17145.545	663.441
17152.941	663.441
17176.273	663.441
17184.717	663.441
17189.951	663.327
17197.766	663.327
17209.629	663.327
17216.055	663.327
17213.254	663.327
17201.197	663.327
17178.623	663.327
17153.215	663.327
17128.365	663.213
17099.805	663.213
17074.045	663.213
17048.523	663.213
17024.707	663.213
17004.520	663.213
16983.586	663.213
16960.527	663.213
16941.445	663.104
16926.711	663.104
16919.488	663.104
16924.902	663.104
16927.180	663.104
16921.289	663.104
16914.395	663.104
16911.395	663.104
16904.143	663.030
16903.520	663.030
16906.682	663.030
16909.354	663.030
16906.428	663.030
16906.578	663.030
16911.477	663.030
16914.295	663.030
16914.275	663.000
16912.141	663.000
16908.426	663.000
16909.555	663.000
16913.947	663.000
16928.957	663.000
16933.836	663.000
16933.313	663.000
16930.719	662.975
16928.225	662.975
16931.824	662.975
16948.916	662.975
16950.916	662.975
16946.752	662.975
16944.523	662.975
16942.543	662.975
16939.373	662.957
16942.166	662.957
16946.115	662.957
16943.453	662.957
16938.342	662.957
16935.691	662.957
16936.350	662.957
16936.305	662.957
16937.559	662.941
16934.193	662.941
16927.135	662.941
16923.092	662.941
16923.313	662.941
16922.652	662.941
16919.848	662.941
16918.914	662.941
16915.143	662.943
16913.100	662.943
16909.348	662.943
16905.172	662.943
16895.564	662.943
16894.928	662.943
16897.547	662.943
16898.578	662.943
16887.771	662.959
16883.598	662.959
16884.027	662.959
16879.783	662.959
16869.922	662.959
16868.389	662.959
16879.756	662.959
16883.980	662.959
16880.695	662.964
16878.000	662.964
16872.977	662.964
16873.660	662.964
16870.971	662.964
16865.783	662.964
16862.250	662.964
16859.613	662.964
16856.217	662.953
16853.385	662.953
16853.795	662.953
16858.363	662.953
16858.420	662.953
16856.508	662.953
16860.295	662.953
16860.008	662.953
16853.420	662.949
16856.768	662.949
16863.551	662.949
16860.113	662.949
16851.965	662.949
16854.945	662.949
16865.357	662.949
16866.996	662.949
16865.107	662.927
16861.021	662.927
16857.000	662.927
16851.781	662.927
16849.184	662.927
16851.230	662.927
16852.775	662.927
16855.727	662.927
16858.574	662.899
16855.986	662.899
16852.258	662.899
16859.289	662.899
16864.564	662.899
16864.260	662.899
16864.006	662.899
16859.320	662.899
16855.459	662.869
16859.668	662.869
16885.602	662.869
16915.160	662.869
16925.721	662.869
16934.258	662.869
16935.002	662.869
16938.854	662.869
16944.771	662.841
16955.598	662.841
16972.129	662.841
16977.299	662.841
16955.662	662.841
16933.797	662.841
16933.949	662.841
16938.395	662.841
16927.453	662.825
16897.742	662.825
16858.693	662.825
16827.801	662.825
16828.422	662.825
16847.693	662.825
16855.557	662.825
16854.029	662.825
16846.150	662.829
16845.627	662.829
16852.271	662.829
16858.084	662.829
16863.387	662.829
16866.592	662.829
16865.309	662.829
16859.564	662.829
16846.258	662.833
16845.609	662.833
16866.596	662.833
16887.820	662.833
17095.465	662.833
17243.580	662.833
17863.480	662.833
18177.045	662.833
18382.838	662.811
18491.777	662.811
18792.590	662.811
18750.605	662.811
18502.691	662.811
18300.428	662.811
17324.496	662.811
16993.100	662.811
16595.637	662.756
16733.363	662.756
16852.939	662.756
16895.389	662.756
16904.881	662.756
16899.484	662.756
16900.346	662.756
16908.383	662.756
16906.109	662.696
16895.639	662.696
16893.580	662.696
16893.465	662.696
16888.305	662.696
16886.738	662.696
16887.033	662.696
16889.156	662.696
16891.939	662.656
16897.523	662.656
16899.236	662.656
16896.902	662.656
16898.873	662.656
16902.217	662.656
16906.211	662.656
16908.428	662.656
16907.373	662.649
16909.055	662.649
16913.654	662.649
16915.564	662.649
16915.648	662.649
16923.063	662.649
16926.867	662.649
16934.357	662.649
16934.781	662.576
16939.180	662.576
16942.789	662.576
16946.613	662.576
16955.115	662.576
16964.582	662.576
16969.820	662.576
16985.107	662.576
16986.572	662.487
16999.750	662.487
17018.104	662.487
17033.621	662.487
17041.465	662.487
17061.695	662.487
17074.264	662.487
17092.412	662.487
17113.713	662.386
17132.264	662.386
17147.088	662.386
17159.291	662.386
17173.152	662.386
17188.293	662.386
17199.152	662.386
17207.730	662.386
17221.516	662.269
17235.424	662.269
17235.131	662.269
17232.541	662.269
17237.895	662.269
17234.723	662.269
17220.750	662.269
17201.910	662.269
17186.334	662.155
17168.014	662.155
17142.072	662.155
17117.605	662.155
17092.748	662.155
17068.295	662.155
17046.973	662.155
17038.379	662.155
17007.594	662.086
16994.525	662.086
16989.482	662.086
16985.869	662.086
16973.582	662.086
16971.613	662.086
16963.715	662.086
16959.938	662.086
16959.846	662.030
16959.699	662.030
16949.473	662.030
16948.656	662.030
16955.902	662.030
16956.301	662.030
16951.594	662.030
16950.334	662.030
16955.301	662.023
16959.557	662.023
16965.314	662.023
16972.271	662.023
16973.104	662.023
16969.225	662.023
16971.414	662.023
16978.209	662.023
16980.520	662.069
16981.436	662.069
16982.826	662.069
16984.242	662.069
16982.479	662.069
16983.906	662.069
16988.746	662.069
16989.250	662.069
16987.512	662.130
16984.711	662.130
16980.469	662.130
16981.535	662.130
16981.875	662.130
16975.906	662.130
16966.334	662.130
16959.215	662.130
16961.158	662.234
16963.736	662.234
16963.396	662.234
16960.203	662.234
16953.957	662.234
16949.348	662.234
16948.443	662.234
16940.947	662.234
16930.813	662.311
16922.279	662.311
16920.029	662.311
16920.574	662.311
16919.158	662.311
16913.660	662.311
16914.010	662.311
16911.064	662.311
16908.811	662.441
16901.107	662.441
16895.834	662.441
16895.205	662.441
16896.525	662.441
16897.193	662.441
16895.053	662.441
16889.641	662.441
16884.213	662.623
16881.539	662.623
16886.477	662.623
16886.754	662.623
16883.295	662.623
16884.256	662.623
16883.938	662.623
16884.477	662.623
16886.125	662.851
16883.541	662.851
16877.152	662.851
16873.328	662.851
16868.412	662.851
16870.793	662.851
16876.990	662.851
16875.043	662.851
16869.400	663.064
16867.422	663.064
16869.125	663.064
16867.922	663.064
16868.234	663.064
16868.457	663.064
16865.891	663.064
16864.693	663.064
16860.289	663.257
16857.371	663.257
16850.619	663.257
16855.180	663.257
16859.289	663.257
16858.977	663.257
16845.768	663.257
16856.258	663.257
16889.076	663.441
16908.432	663.441
16942.355	663.441
16942.256	663.441
16934.279	663.441
16930.098	663.441
16927.402	663.441
16939.311	663.441
16966.834	663.696
16972.922	663.696
16943.080	663.696
16917.416	663.696
16916.783	663.696
16914.697	663.696
16895.230	663.696
16870.104	663.696
16841.869	663.999
16810.516	663.999
16802.223	663.999
16820.748	663.999
16834.605	663.999
16831.318	663.999
16818.746	663.999
16816.943	663.999
16826.521	664.327
16829.633	664.327
16826.357	664.327
16832.064	664.327
16837.561	664.327
16837.055	664.327
16830.326	664.327
16821.162	664.327
16820.617	664.634
16899.389	664.634
16985.287	664.634
17496.895	664.634
17933.063	664.634
18238.520	664.634
18343.256	664.634
18674.232	664.634
18775.244	664.924
18743.857	664.924
18454.494	664.924
17899.352	664.924
17533.777	664.924
16650.074	664.924
16564.854	664.924
16717.865	664.924
16809.391	665.216
16837.584	665.216
16853.338	665.216
16859.201	665.216
16861.928	665.216
16860.973	665.216
16854.668	665.216
16852.768	665.216
16845.314	665.469
16836.471	665.469
16836.348	665.469
16834.682	665.469
16831.555	665.469
16831.195	665.469
16836.484	665.469
16840.299	665.469
16836.502	665.757
16830.779	665.757
16835.514	665.757
16842.816	665.757
16839.543	665.757
16831.201	665.757
16826.783	665.757
16827.508	665.757
16831.334	666.045
16833.471	666.045
16837.361	666.045
16839.883	666.045
16848.961	666.045
16850.682	666.045
16851.045	666.045
16849.793	666.045
16847.617	666.381
16850.748	666.381
16870.166	666.381
16878.795	666.381
16879.184	666.381
16881.246	666.381
16899.627	666.381
16903.809	666.381
16915.953	666.774
16935.277	666.774
16953.258	666.774
16966.797	666.774
16978.521	666.774
16991.191	666.774
17006.951	666.774
17026.004	666.774
17040.793	667.168
17053.322	667.168
17058.314	667.168
17061.799	667.168
17076.023	667.168
17089.576	667.168
17096.357	667.168
17102.688	667.168
17111.289	667.500
17116.551	667.500
17110.688	667.500
17094.930	667.500
17078.740	667.500
17063.543	667.500
17043.018	667.500
17023.189	667.500
17002.404	667.777
16978.504	667.777
16950.531	667.777
16924.119	667.777
16913.346	667.777
16892.701	667.777
16885.367	667.777
16857.561	667.777
16845.523	668.064
16844.852	668.064
16845.691	668.064
16840.893	668.064
16836.771	668.064
16823.080	668.064
16820.625	668.064
16825.363	668.064
16824.859	668.396
16823.281	668.396
16825.398	668.396
16828.516	668.396
16819.346	668.396
16821.902	668.396
16833.541	668.396
16840.445	668.396
16841.494	668.703
16839.531	668.703
16838.770	668.703
16843.135	668.703
16846.963	668.703
16848.904	668.703
16851.643	668.703
16854.961	668.703
16855.141	669.003
16858.422	669.003
16860.768	669.003
16860.186	669.003
16859.734	669.003
16859.441	669.003
16857.693	669.003
16855.826	669.003
16854.947	669.343
16857.307	669.343
16858.547	669.343
16852.848	669.343
16848.090	669.343
16841.131	669.343
16833.283	669.343
16833.869	669.343
16838.332	669.641
16838.262	669.641
16834.637	669.641
16829.084	669.641
16824.879	669.641
16821.902	669.641
16807.877	669.641
16805.217	669.641
16803.697	669.971
16800.236	669.971
16786.510	669.971
16786.809	669.971
16792.326	669.971
16793.359	669.971
16784.596	669.971
16778.961	669.971
16775.043	670.293
16774.680	670.293
16777.723	670.293
16776.189	670.293
16769.764	670.293
16765.133	670.293
16770.936	670.293
16777.059	670.293
16772.625	670.576
16770.947	670.576
16772.736	670.576
16770.697	670.576
16764.570	670.576
16760.584	670.576
16760.500	670.576
16762.740	670.576
16766.738	670.885
16771.742	670.885
16779.258	670.885
16799.918	670.885
16832.725	670.885
16846.260	670.885
16844.178	670.885
16849.725	670.885
16852.297	671.131
16845.037	671.131
16845.998	671.131
16869.949	671.131
16881.074	671.131
16874.809	671.131
16844.662	671.131
16835.855	671.131
16838.926	671.344
16831.514	671.344
16820.824	671.344
16778.027	671.344
16748.379	671.344
16732.611	671.344
16730.348	671.344
16740.359	671.344
16743.213	671.552
16743.111	671.552
16743.227	671.552
16747.111	671.552
16749.881	671.552
16750.408	671.552
16750.916	671.552
16752.465	671.552
16761.672	671.808
16761.498	671.808
16748.789	671.808
16743.563	671.808
16764.928	671.808
16864.041	671.808
17110.105	671.808
17509.795	671.808
17947.209	672.060
18260.297	672.060
18475.910	672.060
18689.189	672.060
18790.047	672.060
18678.611	672.060
18348.680	672.060
17724.055	672.060
16985.957	672.305
16542.191	672.305
16511.180	672.305
16566.768	672.305
16695.490	672.305
16716.609	672.305
16777.355	672.305
16789.664	672.305
16781.449	672.524
16781.041	672.524
16785.248	672.524
16783.676	672.524
16785.760	672.524
16789.656	672.524
16788.256	672.524
16786.252	672.524
16786.602	672.760
16788.125	672.760
16799.711	672.760
16805.971	672.760
16805.824	672.760
16801.727	672.760
16799.145	672.760
16798.318	672.760
16799.641	672.940
16804.627	672.940
16805.215	672.940
16808.082	672.940
16815.639	672.940
16820.721	672.940
16821.973	672.940
16819.908	672.940
16821.094	673.097
16821.973	673.097
16826.256	673.097
16837.330	673.097
16847.533	673.097
16849.633	673.097
16850.869	673.097
16857.355	673.097
16871.934	673.287
16879.553	673.287
16885.195	673.287
16900.709	673.287
16917.594	673.287
16935.414	673.287
16944.527	673.287
16959.236	673.287
16961.453	673.553
16977.107	673.553
16998.217	673.553
17019.934	673.553
17027.283	673.553
17038.758	673.553
17044.459	673.553
17060.957	673.553
17073.512	673.795
17083.844	673.795
17086.004	673.795
17089.787	673.795
17091.684	673.795
17096.979	673.795
17090.047	673.795
17073.465	673.795
17057.785	673.985
17041.568	673.985
17017.281	673.985
16987.176	673.985
16968.988	673.985
16951.729	673.985
16929.088	673.985
16904.184	673.985
16878.531	674.151
16865.816	674.151
16859.340	674.151
16855.100	674.151
16847.805	674.151
16836.066	674.151
16830.521	674.151
16828.754	674.151
16821.703	674.311
16812.127	674.311
16804.783	674.311
16805.846	674.311
16808.482	674.311
16808.352	674.311
16805.223	674.311
16802.107	674.311
16801.209	674.507
16801.475	674.507
16805.434	674.507
16808.297	674.507
16819.154	674.507
16822.520	674.507
16812.408	674.507
16811.234	674.507
16819.270	674.725
16822.484	674.725
16828.365	674.725
16829.482	674.725
16830.688	674.725
16831.852	674.725
16838.813	674.725
16842.904	674.725
16839.137	674.943
16830.193	674.943
16825.729	674.943
16826.293	674.943
16831.781	674.943
16836.223	674.943
16843.494	674.943
16847.100	674.943
16842.045	675.187
16833.277	675.187
16823.848	675.187
16819.404	675.187
16819.900	675.187
16819.957	675.187
16818.877	675.187
16812.225	675.187
16803.771	675.399
16795.088	675.399
16796.553	675.399
16805.445	675.399
16803.086	675.399
16792.561	675.399
16783.654	675.399
16781.352	675.399
16778.879	675.611
16773.910	675.611
16765.637	675.611
16765.934	675.611
16770.525	675.611
16771.627	675.611
16768.996	675.611
16772.063	675.611
16770.463	675.829
16770.184	675.829
16774.234	675.829
16809.219	675.829
16825.313	675.829
16844.932	675.829
16840.814	675.829
16842.580	675.829
16845.600	676.042
16850.314	676.042
16851.750	676.042
16871.488	676.042
16878.631	676.042
16871.010	676.042
16854.826	676.042
16849.492	676.042
16844.146	676.151
16828.447	676.151
16804.957	676.151
16764.621	676.151
16724.408	676.151
16712.504	676.151
16720.799	676.151
16729.406	676.151
16730.766	676.204
16725.682	676.204
16722.744	676.204
16726.961	676.204
16723.430	676.204
16720.309	676.204
16724.309	676.204
16730.467	676.204
16738.781	676.218
16742.752	676.218
16739.783	676.218
16733.607	676.218
16727.664	676.218
16730.256	676.218
16844.723	676.218
16951.217	676.218
17510.150	676.240
17940.115	676.240
18232.969	676.240
18338.861	676.240
18656.629	676.240
18733.844	676.240
18662.178	676.240
18321.264	676.240
17658.146	676.264
17264.852	676.264
16496.758	676.264
16462.779	676.264
16627.693	676.264
16693.490	676.264
16716.406	676.264
16741.918	676.264
16754.920	676.285
16764.268	676.285
16770.189	676.285
16770.287	676.285
16772.605	676.285
16768.291	676.285
16759.775	676.285
16758.443	676.285
16760.010	676.385
16758.666	676.385
16763.434	676.385
16770.182	676.385
16773.180	676.385
16775.203	676.385
16775.674	676.385
16777.590	676.385
16778.057	676.448
16777.221	676.448
16777.604	676.448
16780.012	676.448
16782.023	676.448
16782.586	676.448
16789.633	676.448
16798.852	676.448
16799.969	676.552
16799.879	676.552
16803.031	676.552
16806.346	676.552
16809.098	676.552
16818.912	676.552
16822.020	676.552
16826.658	676.552
16832.760	676.720
16841.561	676.720
16845.756	676.720
16859.328	676.720
16868.080	676.720
16878.346	676.720
16887.883	676.720
16920.994	676.720
16926.699	677.002
16940.168	677.002
16949.018	677.002
16964.145	677.002
16989.020	677.002
17006.381	677.002
17015.883	677.002
17023.234	677.002
17032.666	677.304
17045.006	677.304
17052.797	677.304
17056.939	677.304
17065.627	677.304
17070.758	677.304
17064.750	677.304
17050.939	677.304
17039.266	677.574
17023.771	677.574
17001.285	677.574
16975.197	677.574
16951.527	677.574
16928.137	677.574
16906.490	677.574
16879.447	677.574
16852.295	677.848
16836.838	677.848
16826.014	677.848
16820.633	677.848
16804.258	677.848
16798.104	677.848
16797.996	677.848
16797.742	677.848
16784.346	678.130
16777.457	678.130
16768.223	678.130
16767.117	678.130
16766.809	678.130
16768.193	678.130
16766.861	678.130
16767.188	678.130
16765.566	678.365
16760.672	678.365
16758.289	678.365
16770.154	678.365
16775.295	678.365
16768.002	678.365
16761.938	678.365
16765.561	678.365
16775.986	678.540
16784.443	678.540
16785.609	678.540
16787.990	678.540
16788.750	678.540
16789.111	678.540
16792.463	678.540
16799.518	678.540
16803.727	678.694
16796.682	678.694
16795.824	678.694
16804.252	678.694
16804.420	678.694
16796.895	678.694
16792.508	678.694
16794.826	678.694
16798.779	678.858
16803.023	678.858
16804.410	678.858
16798.332	678.858
16795.797	678.858
16791.873	678.858
16787.250	678.858
16777.770	678.858
16775.436	679.029
16776.275	679.029
16775.127	679.029
16776.623	679.029
16774.650	679.029
16760.861	679.029
16757.631	679.029
16754.867	679.029
16756.078	679.184
16758.605	679.184
16754.445	679.184
16758.998	679.184
16759.041	679.184
16769.020	679.184
16800.666	679.184
16819.744	679.184
16821.500	679.368
16822.559	679.368
16826.869	679.368
16830.313	679.368
16835.238	679.368
16850.518	679.368
16868.082	679.368
16873.275	679.368
16868.506	679.484
16853.873	679.484
16841.236	679.484
16835.559	679.484
16822.445	679.484
16800.414	679.484
16759.771	679.484
16711.469	679.484
16696.572	679.542
16714.295	679.542
16728.137	679.542
16722.598	679.542
16707.592	679.542
16695.658	679.542
16703.111	679.542
16709.258	679.542
16709.270	679.540
16706.748	679.540
16708.988	679.540
16710.443	679.540
16722.619	679.540
16726.955	679.540
16721.455	679.540
16702.732	679.540
16696.217	679.552
16705.199	679.552
16845.354	679.552
17112.727	679.552
17529.564	679.552
17750.518	679.552
18218.465	679.552
18332.500	679.552
18661.688	679.574
18716.779	679.574
18585.053	679.574
18219.148	679.574
17538.658	679.574
16829.771	679.574
16490.420	679.574
16516.006	679.574
16632.316	679.591
16697.783	679.591
16728.318	679.591
16748.594	679.591
16758.010	679.591
16758.617	679.591
16755.275	679.591
16751.139	679.591
16747.771	679.725
16745.373	679.725
16742.551	679.725
16743.074	679.725
16749.170	679.725
16754.965	679.725
16754.699	679.725
16754.914	679.725
16757.238	679.919
16756.027	679.919
16754.924	679.919
16761.055	679.919
16763.320	679.919
16764.039	679.919
16765.990	679.919
16774.574	679.919
16771.666	680.022
16765.861	680.022
16768.342	680.022
16777.799	680.022
16775.615	680.022
16780.037	680.022
16788.418	680.022
16786.102	680.022
16784.594	680.111
16794.473	680.111
16800.506	680.111
16809.387	680.111
16822.100	680.111
16835.537	680.111
16844.219	680.111
16853.736	680.111
16864.027	680.288
16874.238	680.288
16888.082	680.288
16905.836	680.288
16917.287	680.288
16926.029	680.288
16947.650	680.288
16973.469	680.288
16994.533	680.547
17004.691	680.547
17002.750	680.547
17006.156	680.547
17022.463	680.547
17041.430	680.547
17050.420	680.547
17052.729	680.547
17050.506	680.652
17042.227	680.652
17037.486	680.652
17035.941	680.652
17017.082	680.652
16998.721	680.652
16976.900	680.652
16962.063	680.652
16920.428	680.733
16900.076	680.733
16877.328	680.733
16851.307	680.733
16828.818	680.733
16821.578	680.733
16804.072	680.733
16784.912	680.733
16773.574	680.917
16771.125	680.917
16766.412	680.917
16768.029	680.917
16761.443	680.917
16755.506	680.917
16759.689	680.917
16758.473	680.917
16748.158	681.099
16749.531	681.099
16760.902	681.099
16761.967	681.099
16755.379	681.099
16753.174	681.099
16761.527	681.099
16761.613	681.099
16756.582	681.225
16757.094	681.225
16758.068	681.225
16756.719	681.225
16749.430	681.225
16751.584	681.225
16759.449	681.225
16768.607	681.225
16771.887	681.273
16766.479	681.273
16760.512	681.273
16768.170	681.273
16781.449	681.273
16783.127	681.273
16776.889	681.273
16774.771	681.273
16776.869	681.390
16779.408	681.390
16776.760	681.390
16779.281	681.390
16779.807	681.390
16776.051	681.390
16772.045	681.390
16761.076	681.390
16768.654	681.509
16770.451	681.509
16767.377	681.509
16758.033	681.509
16754.377	681.509
16750.629	681.509
16753.990	681.509
16753.465	681.509
16748.580	681.587
16740.682	681.587
16738.715	681.587
16741.205	681.587
16732.391	681.587
16722.635	681.587
16722.746	681.587
16735.039	681.587
16749.047	681.599
16761.922	681.599
16777.213	681.599
16783.416	681.599
16784.760	681.599
16793.244	681.599
16801.971	681.599
16802.555	681.599
16807.965	681.594
16819.004	681.594
16834.701	681.594
16842.451	681.594
16828.480	681.594
16801.805	681.594
16787.082	681.594
16782.982	681.594
16773.869	681.609
16760.355	681.609
16694.990	681.609
16666.555	681.609
16670.912	681.609
16679.445	681.609
16681.049	681.609
16673.904	681.609
16665.723	681.612
16664.047	681.612
16669.904	681.612
16671.924	681.612
16659.646	681.612
16660.775	681.612
16682.123	681.612
16689.490	681.612
16689.471	681.643
16685.484	681.643
16675.959	681.643
16675.215	681.643
16674.871	681.643
16728.805	681.643
16931.008	681.643
17311.059	681.643
17750.268	681.667
18067.318	681.667
18290.822	681.667
18524.686	681.667
18681.441	681.667
18642.732	681.667
18408.496	681.667
17866.355	681.667
17093.863	681.756
16531.291	681.756
16432.541	681.756
16560.916	681.756
16659.148	681.756
16688.121	681.756
16704.572	681.756
16710.408	681.756
16708.869	681.896
16719.346	681.896
16725.271	681.896
16715.162	681.896
16710.012	681.896
16708.313	681.896
16708.287	681.896
16707.020	681.896
16706.205	682.085
16709.832	682.085
16709.629	682.085
16712.887	682.085
16721.234	682.085
16720.424	682.085
16718.541	682.085
16723.771	682.085
16725.631	682.145
16726.109	682.145
16732.803	682.145
16739.008	682.145
16739.320	682.145
16735.889	682.145
16743.277	682.145
16748.137	682.145
16744.953	682.230
16750.434	682.230
16757.674	682.230
16759.650	682.230
16760.760	682.230
16772.344	682.230
16785.252	682.230
16789.391	682.230
16798.160	682.392
16808.357	682.392
16810.463	682.392
16818.588	682.392
16836.531	682.392
16851.350	682.392
16866.648	682.392
16889.912	682.392
16905.109	682.614
16917.250	682.614
16933.102	682.614
16957.689	682.614
16979.605	682.614
16984.627	682.614
17001.674	682.614
17012.064	682.614
17015.242	682.694
17018.570	682.694
17025.039	682.694
17024.758	682.694
17024.611	682.694
17021.682	682.694
17011.066	682.694
17004.609	682.694
16987.855	682.718
16976.604	682.718
16923.268	682.718
16890.371	682.718
16866.361	682.718
16855.576	682.718
16826.553	682.718
16803.336	682.718
16790.098	682.780
16786.049	682.780
16771.451	682.780
16755.619	682.780
16746.865	682.780
16733.619	682.780
16725.385	682.780
16729.918	682.780
16727.670	682.772
16724.131	682.772
16732.717	682.772
16736.932	682.772
16726.418	682.772
16719.092	682.772
16725.410	682.772
16735.945	682.772
16733.992	682.707
16726.535	682.707
16722.400	682.707
16734.217	682.707
16743.662	682.707
16738.715	682.707
16739.443	682.707
16742.904	682.707
16741.309	682.647
16749.154	682.647
16754.479	682.647
16760.080	682.647
16760.291	682.647
16765.537	682.647
16762.959	682.647
16761.430	682.647
16763.020	682.626
16767.814	682.626
16768.449	682.626
16773.480	682.626
16772.621	682.626
16771.088	682.626
16772.188	682.626
16776.020	682.626
16773.930	682.662
16768.504	682.662
16768.773	682.662
16768.127	682.662
16762.613	682.662
16754.730	682.662
16760.580	682.662
16765.586	682.662
16758.719	682.665
16745.834	682.665
16743.047	682.665
16745.240	682.665
16747.533	682.665
16745.127	682.665
16738.926	682.665
16735.389	682.665
16733.748	682.615
16726.984	682.615
16727.641	682.615
16735.887	682.615
16732.828	682.615
16727.375	682.615
16726.283	682.615
16722.861	682.615
16719.072	682.590
16719.127	682.590
16717.426	682.590
16722.043	682.590
16736.639	682.590
16746.902	682.590
16781.043	682.590
16788.166	682.590
16788.918	682.651
16793.416	682.651
16803.518	682.651
16807.203	682.651
16808.084	682.651
16810.393	682.651
16824.941	682.651
16818.684	682.651
16803.430	682.664
16800.217	682.664
16795.432	682.664
16789.391	682.664
16765.682	682.664
16728.221	682.664
16681.162	682.664
16655.357	682.664
16657.797	682.649
16675.000	682.649
16680.879	682.649
16671.727	682.649
16660.064	682.649
16654.248	682.649
16651.406	682.649
16655.402	682.649
16667.039	682.579
16672.148	682.579
16676.020	682.579
16677.514	682.579
16676.135	682.579
16677.330	682.579
16678.410	682.579
16670.334	682.579
16670.645	682.502
16733.113	682.502
16938.760	682.502
17314.861	682.502
17740.984	682.502
18044.773	682.502
18163.568	682.502
18533.553	682.502
18632.191	682.534
18626.598	682.534
18365.213	682.534
17788.514	682.534
17399.133	682.534
16495.416	682.534
16431.750	682.534
16563.771	682.534
16616.658	682.565
16664.184	682.565
16673.922	682.565
16702.154	682.565
16707.400	682.565
16706.984	682.565
16703.658	682.565
16699.752	682.565
16702.510	682.665
16702.131	682.665
16703.170	682.665
16708.238	682.665
16704.418	682.665
16702.307	682.665
16702.551	682.665
16701.166	682.665
16711.346	682.719
16720.818	682.719
16718.225	682.719
16716.314	682.719
16719.930	682.719
16720.814	682.719
16713.904	682.719
16718.400	682.719
16734.064	682.727
16737.904	682.727
16730.883	682.727
16730.230	682.727
16736.229	682.727
16739.949	682.727
16742.371	682.727
16743.523	682.727
16750.951	682.797
16769.627	682.797
16783.217	682.797
16785.977	682.797
16798.457	682.797
16803.656	682.797
16807.477	682.797
16820.557	682.797
16838.895	682.916
16850.240	682.916
16873.994	682.916
16875.846	682.916
16894.314	682.916
16918.721	682.916
16945.234	682.916
16957.346	682.916
16977.809	682.968
16990.379	682.968
17010.613	682.968
17018.711	682.968
17020.834	682.968
17035.848	682.968
17054.115	682.968
17054.475	682.968
17044.688	682.998
17040.924	682.998
17040.152	682.998
17028.363	682.998
16997.584	682.998
16966.496	682.998
16938.516	682.998
16913.469	682.998
16897.539	683.088
16880.613	683.088
16855.912	683.088
16830.070	683.088
16808.326	683.088
16797.895	683.088
16786.156	683.088
16774.975	683.088
16771.275	683.206
16768.092	683.206
16763.684	683.206
16746.736	683.206
16744.971	683.206
16749.762	683.206
16750.934	683.206
16751.475	683.206
16754.018	683.282
16752.273	683.282
16747.180	683.282
16746.889	683.282
16749.549	683.282
16759.596	683.282
16760.859	683.282
16759.576	683.282
16768.451	683.433
16766.736	683.433
16762.076	683.433
16762.939	683.433
16773.877	683.433
16773.068	683.433
16768.797	683.433
16772.961	683.433
16780.506	683.515
16783.826	683.515
16778.424	683.515
16775.357	683.515
16783.045	683.515
16788.449	683.515
16781.887	683.515
16777.904	683.515
16781.395	683.521
16788.596	683.521
16802.945	683.521
16799.502	683.521
16779.572	683.521
16776.297	683.521
16786.031	683.521
16785.330	683.521
16782.535	683.488
16772.848	683.488
16767.420	683.488
16768.453	683.488
16760.453	683.488
16759.188	683.488
16771.691	683.488
16770.582	683.488
16760.023	683.429
16756.918	683.429
16756.443	683.429
16754.902	683.429
16744.977	683.429
16740.275	683.429
16740.113	683.429
16740.428	683.429
16733.197	683.300
16731.900	683.300
16734.527	683.300
16735.051	683.300
16730.775	683.300
16727.236	683.300
16723.443	683.300
16723.180	683.300
16726.100	683.128
16725.750	683.128
16722.531	683.128
16714.313	683.128
16710.545	683.128
16718.340	683.128
16729.457	683.128
16726.250	683.128
16714.221	682.941
16711.197	682.941
16711.920	682.941
16715.920	682.941
16718.420	682.941
16723.047	682.941
16733.846	682.941
16747.719	682.941
16765.486	682.736
16775.135	682.736
16777.131	682.736
16782.457	682.736
16789.523	682.736
16791.461	682.736
16789.445	682.736
16805.277	682.736
16819.729	682.561
16821.090	682.561
16819.699	682.561
16803.941	682.561
16795.963	682.561
16793.789	682.561
16793.803	682.561
16783.967	682.561
16772.512	682.331
16720.338	682.331
16707.613	682.331
16691.801	682.331
16701.807	682.331
16712.369	682.331
16710.361	682.331
16698.000	682.331
16696.555	682.064
16691.182	682.064
16691.031	682.064
16695.389	682.064
16697.025	682.064
16698.732	682.064
16700.025	682.064
16704.244	682.064
16713.553	681.882
16708.471	681.882
16694.707	681.882
16698.563	681.882
16748.404	681.882
16924.986	681.882
17277.328	681.882
17709.260	681.882
18033.400	681.757
18274.064	681.757
18526.748	681.757
18702.932	681.757
18684.904	681.757
18484.330	681.757
17988.291	681.757
17228.627	681.757
16614.619	681.602
16456.770	681.602
16577.572	681.602
16643.895	681.602
16718.611	681.602
16726.658	681.602
16746.039	681.602
16743.555	681.602
16742.898	681.414
16741.895	681.414
16738.250	681.414
16741.418	681.414
16753.121	681.414
16751.799	681.414
16747.982	681.414
16748.068	681.414
16745.646	681.271
16745.344	681.271
16757.170	681.271
16762.635	681.271
16765.412	681.271
16761.289	681.271
16754.914	681.271
16761.295	681.271
16769.779	681.040
16768.795	681.040
16770.418	681.040
16778.537	681.040
16783.512	681.040
16782.111	681.040
16779.504	681.040
16781.125	681.040
16787.039	680.740
16793.717	680.740
16802.189	680.740
16810.725	680.740
16817.225	680.740
16821.652	680.740
16828.273	680.740
16843.711	680.740
16857.730	680.648
16865.539	680.648
16877.912	680.648
16893.242	680.648
16911.994	680.648
16923.934	680.648
16927.268	680.648
16950.270	680.648
16968.348	680.599
16986.199	680.599
16998.291	680.599
17036.641	680.599
17052.561	680.599
17069.543	680.599
17077.701	680.599
17095.242	680.599
17100.725	680.398
17113.930	680.398
17120.109	680.398
17123.133	680.398
17123.529	680.398
17111.871	680.398
17092.232	680.398
17072.318	680.398
17054.166	680.160
17029.484	680.160
16998.857	680.160
16970.723	680.160
16948.383	680.160
16924.611	680.160
16898.330	680.160
16873.670	680.160
16859.758	679.965
16852.287	679.965
16842.152	679.965
16831.588	679.965
16821.371	679.965
16816.135	679.965
16808.047	679.965
16804.201	679.965
16808.506	679.722
16815.752	679.722
16819.246	679.722
16813.430	679.722
16803.625	679.722
16798.725	679.722
16802.936	679.722
16806.436	679.722
16819.064	679.478
16824.275	679.478
16815.443	679.478
16808.527	679.478
16801.080	679.478
16805.838	679.478
16814.758	679.478
16814.596	679.478
16819.234	679.264
16822.223	679.264
16824.584	679.264
16822.113	679.264
16816.729	679.264
16823.807	679.264
16830.330	679.264
16835.096	679.264
16839.791	679.074
16835.508	679.074
16833.939	679.074
16832.436	679.074
16831.473	679.074
16835.561	679.074
16836.979	679.074
16835.318	679.074
16829.070	678.908
16827.061	678.908
16830.926	678.908
16837.652	678.908
16838.871	678.908
16824.998	678.908
16810.760	678.908
16813.258	678.908
16822.398	678.794
16819.982	678.794
16801.816	678.794
16789.004	678.794
16792.824	678.794
16800.211	678.794
16802.180	678.794
16800.383	678.794
16798.674	678.653
16788.395	678.653
16784.047	678.653
16788.211	678.653
16789.520	678.653
16781.447	678.653
16778.713	678.653
16785.807	678.653
16788.578	678.472
16786.064	678.472
16785.105	678.472
16777.336	678.472
16773.180	678.472
16769.172	678.472
16768.287	678.472
16769.301	678.472
16772.627	678.226
16778.895	678.226
16776.977	678.226
16762.965	678.226
16763.662	678.226
16768.574	678.226
16766.188	678.226
16762.127	678.226
16762.898	677.925
16761.967	677.925
16755.264	677.925
16751.313	677.925
16754.596	677.925
16758.879	677.925
16758.369	677.925
16760.055	677.925
16761.654	677.656
16761.975	677.656
16759.670	677.656
16754.756	677.656
16756.717	677.656
16761.619	677.656
16761.863	677.656
16756.533	677.656
16751.063	677.452
16745.719	677.452
16744.924	677.452
16749.281	677.452
16755.537	677.452
16751.172	677.452
16756.244	677.452
16760.896	677.452
16774.127	677.285
16783.008	677.285
16810.414	677.285
16825.809	677.285
16836.059	677.285
16840.455	677.285
16848.820	677.285
16845.832	677.285
16831.314	677.155
16846.977	677.155
16864.063	677.155
16865.885	677.155
16854.355	677.155
16836.025	677.155
16824.527	677.155
16828.717	677.155
16829.430	676.982
16820.176	676.982
16793.643	676.982
16752.379	676.982
16726.691	676.982
16732.799	676.982
16747.369	676.982
16749.262	676.982
16745.162	676.799
16739.023	676.799
16730.115	676.799
16723.332	676.799
16730.594	676.799
16749.330	676.799
16757.041	676.799
16752.281	676.799
16749.592	676.613
16756.508	676.613
16759.727	676.613
16750.918	676.613
16735.980	676.613
16732.166	676.613
16744.994	676.613
16956.053	676.613
17311.666	676.431
17730.357	676.431
17893.322	676.431
18265.371	676.431
18404.836	676.431
18722.020	676.431
18697.703	676.431
18501.980	676.431
18310.924	676.248
17285.908	676.248
16667.416	676.248
16503.268	676.248
16558.240	676.248
16757.432	676.248
16779.875	676.248
16803.051	676.248
16803.492	676.087
16801.482	676.087
16801.289	676.087
16801.270	676.087
16802.697	676.087
16799.836	676.087
16793.727	676.087
16790.541	676.087
16791.934	675.985
16795.477	675.985
16797.594	675.985
16796.420	675.985
16798.145	675.985
16800.461	675.985
16803.785	675.985
16808.082	675.985
16809.963	675.862
16810.578	675.862
16809.059	675.862
16800.789	675.862
16795.604	675.862
16800.133	675.862
16811.045	675.862
16821.850	675.862
16824.838	675.633
16824.365	675.633
16825.695	675.633
16827.145	675.633
16829.271	675.633
16834.178	675.633
16845.594	675.633
16850.727	675.633
16861.420	675.495
16870.762	675.495
16880.072	675.495
16886.256	675.495
16905.289	675.495
16912.289	675.495
16931.916	675.495
16943.775	675.495
16959.492	675.419
16969.586	675.419
17003.232	675.419
17024.535	675.419
17042.701	675.419
17063.438	675.419
17082.799	675.419
17091.238	675.419
17105.941	675.263
17128.131	675.263
17147.463	675.263
17161.115	675.263
17166.979	675.263
17166.973	675.263
17165.859	675.263
17164.197	675.263
17152.207	675.057
17128.471	675.057
17096.771	675.057
17057.832	675.057
17026.891	675.057
17002.523	675.057
16977.361	675.057
16952.197	675.057
16927.105	674.841
16901.391	674.841
16880.596	674.841
16865.359	674.841
16855.086	674.841
16843.180	674.841
16837.146	674.841
16826.805	674.841
16822.154	674.643
16817.936	674.643
16816.514	674.643
16816.035	674.643
16814.684	674.643
16807.764	674.643
16809.064	674.643
16813.299	674.643
16814.307	674.449
16808.754	674.449
16807.447	674.449
16812.160	674.449
16814.973	674.449
16814.377	674.449
16810.688	674.449
16813.631	674.449
16816.256	674.300
16813.924	674.300
16812.537	674.300
16814.359	674.300
16815.965	674.300
16818.441	674.300
16814.641	674.300
16813.402	674.300
16814.258	674.101
16810.682	674.101
16810.619	674.101
16818.791	674.101
16823.377	674.101
16822.963	674.101
16821.648	674.101
16818.410	674.101
16813.334	673.884
16809.053	673.884
16806.512	673.884
16808.213	673.884
16808.924	673.884
16805.627	673.884
16804.404	673.884
16803.490	673.884
16793.725	673.711
16786.988	673.711
16785.570	673.711
16786.686	673.711
16790.170	673.711
16787.092	673.711
16781.391	673.711
16779.834	673.711
16780.418	673.572
16778.750	673.572
16773.180	673.572
16774.727	673.572
16774.418	673.572
16771.451	673.572
16763.811	673.572
16762.980	673.572
16765.283	673.441
16768.766	673.441
16769.492	673.441
16769.607	673.441
16767.621	673.441
16761.529	673.441
16759.686	673.441
16758.160	673.441
16756.264	673.295
16757.945	673.295
16762.609	673.295
16765.234	673.295
16763.572	673.295
16755.867	673.295
16748.525	673.295
16749.072	673.295
16756.119	673.196
16760.098	673.196
16761.375	673.196
16758.838	673.196
16754.170	673.196
16751.955	673.196
16751.750	673.196
16754.738	673.196
16756.896	673.064
16762.148	673.064
16758.215	673.064
16752.910	673.064
16750.559	673.064
16745.875	673.064
16744.344	673.064
16748.400	673.064
16760.209	672.926
16764.568	672.926
16762.514	672.926
16749.994	672.926
16748.637	672.926
16753.025	672.926
16752.189	672.926
16751.285	672.926
16754.018	672.778
16763.111	672.778
16760.602	672.778
16760.025	672.778
16758.336	672.778
16757.340	672.778
16759.166	672.778
16760.318	672.778
16759.186	672.646
16760.055	672.646
16761.508	672.646
16759.021	672.646
16755.166	672.646
16756.768	672.646
16762.816	672.646
16760.918	672.646
16765.074	672.489
16787.211	672.489
16815.709	672.489
16833.797	672.489
16841.904	672.489
16853.365	672.489
16860.551	672.489
16854.594	672.489
16848.959	672.332
16853.576	672.332
16863.814	672.332
16863.486	672.332
16842.111	672.332
16831.195	672.332
16832.252	672.332
16832.602	672.332
16816.607	672.171
16812.781	672.171
16790.094	672.171
16755.529	672.171
16728.328	672.171
16722.502	672.171
16741.805	672.171
16750.508	672.171
16746.582	671.990
16735.666	671.990
16729.420	671.990
16729.971	671.990
16738.248	671.990
16740.883	671.990
16743.486	671.990
16745.896	671.990
16748.734	671.808
16750.217	671.808
16745.641	671.808
16740.816	671.808
16741.820	671.808
16774.539	671.808
16922.133	671.808
17251.842	671.808
17656.363	671.646
17934.104	671.646
18148.014	671.646
18416.646	671.646
18634.564	671.646
18643.350	671.646
18468.043	671.646
18062.666	671.646
17381.176	671.497
16742.965	671.497
16512.469	671.497
16629.207	671.497
16765.156	671.497
16810.125	671.497
16812.309	671.497
16807.342	671.497
16805.201	671.300
16799.705	671.300
16797.578	671.300
16787.502	671.300
16780.012	671.300
16781.076	671.300
16783.215	671.300
16788.439	671.300
16789.609	671.158
16789.807	671.158
16782.967	671.158
16785.365	671.158
16789.531	671.158
16797.818	671.158
16798.500	671.158
16801.168	671.158
16799.744	671.046
16797.035	671.046
16798.387	671.046
16801.699	671.046
16804.855	671.046
16808.168	671.046
16808.387	671.046
16807.826	671.046
16810.232	670.855
16816.107	670.855
16818.049	670.855
16821.336	670.855
16830.061	670.855
16839.594	670.855
16845.387	670.855
16852.486	670.855
16864.139	670.686
16874.463	670.686
16881.617	670.686
16890.615	670.686
16905.430	670.686
16920.723	670.686
16937.129	670.686
16953.779	670.686
16972.072	670.490
16981.775	670.490
17009.162	670.490
17017.406	670.490
17053.828	670.490
17082.580	670.490
17103.797	670.490
17110.279	670.490
17120.527	670.243
17127.318	670.243
17158.488	670.243
17173.494	670.243
17180.217	670.243
17182.219	670.243
17177.695	670.243
17172.865	670.243
17142.299	669.954
17114.689	669.954
17091.479	669.954
17065.559	669.954
17031.830	669.954
16997.223	669.954
16967.592	669.954
16939.322	669.954
16914.439	669.686
16898.273	669.686
16884.146	669.686
16866.254	669.686
16847.871	669.686
16836.074	669.686
16835.531	669.686
16838.719	669.686
16838.520	669.424
16834.408	669.424
16828.027	669.424
16824.205	669.424
16822.611	669.424
16822.170	669.424
16824.203	669.424
16827.225	669.424
16830.539	669.196
16835.855	669.196
16842.641	669.196
16842.844	669.196
16841.943	669.196
16835.131	669.196
16831.459	669.196
16837.070	669.196
16840.963	669.066
16843.516	669.066
16840.482	669.066
16838.156	669.066
16845.766	669.066
16850.674	669.066
16849.934	669.066
16842.943	669.066
16845.350	669.005
16846.346	669.005
16844.744	669.005
16845.504	669.005
16849.158	669.005
16848.117	669.005
16842.988	669.005
16842.008	669.005
16847.014	668.961
16848.588	668.961
16842.980	668.961
16837.416	668.961
16837.098	668.961
16838.021	668.961
16834.027	668.961
16826.471	668.961
16825.805	668.890
16829.686	668.890
16827.521	668.890
16821.287	668.890
16814.646	668.890
16814.900	668.890
16817.119	668.890
16813.734	668.890
16806.215	668.831
16797.160	668.831
16792.791	668.831
16797.957	668.831
16798.705	668.831
16795.006	668.831
16792.395	668.831
16795.482	668.831
16790.176	668.783
16787.094	668.783
16789.027	668.783
16793.131	668.783
16795.301	668.783
16784.482	668.783
16775.463	668.783
16775.639	668.783
16779.057	668.692
16780.580	668.692
16781.979	668.692
16781.131	668.692
16772.938	668.692
16770.799	668.692
16771.205	668.692
16775.688	668.692
16775.449	668.617
16773.932	668.617
16770.723	668.617
16770.322	668.617
16773.000	668.617
16772.418	668.617
16767.428	668.617
16764.578	668.617
16764.996	668.526
16765.137	668.526
16766.314	668.526
16767.273	668.526
16766.264	668.526
16766.393	668.526
16762.547	668.526
16756.004	668.526
16757.027	668.426
16760.371	668.426
16756.621	668.426
16752.703	668.426
16756.768	668.426
16762.951	668.426
16763.354	668.426
16758.096	668.426
16753.297	668.342
16750.352	668.342
16750.342	668.342
16746.848	668.342
16747.441	668.342
16758.813	668.342
16755.445	668.342
16748.324	668.342
16747.396	668.258
16748.324	668.258
16747.674	668.258
16748.369	668.258
16749.230	668.258
16752.434	668.258
16754.334	668.258
16751.779	668.258
16751.623	668.180
16753.197	668.180
16754.814	668.180
16768.975	668.180
16801.416	668.180
16837.285	668.180
16852.445	668.180
16854.053	668.180
16854.820	668.079
16852.383	668.079
16846.965	668.079
16846.123	668.079
16858.344	668.079
16863.623	668.079
16841.438	668.079
16818.549	668.079
16818.924	667.980
16827.729	667.980
16821.529	667.980
16798.445	667.980
16772.436	667.980
16748.094	667.980
16729.158	667.980
16723.109	667.980
16731.145	667.866
16736.473	667.866
16733.525	667.866
16730.578	667.866
16717.404	667.866
16716.080	667.866
16725.191	667.866
16731.832	667.866
16734.707	667.738
16734.977	667.738
16729.461	667.738
16726.156	667.738
16719.141	667.738
16721.969	667.738
16773.375	667.738
16841.383	667.738
17297.482	667.645
17505.709	667.645
17957.066	667.645
18169.328	667.645
18428.336	667.645
18607.838	667.645
18559.680	667.645
18343.760	667.645
17911.576	667.563
17236.330	667.563
16651.873	667.563
16488.182	667.563
16622.346	667.563
16746.051	667.563
16786.371	667.563
16787.873	667.563
16779.270	667.464
16774.967	667.464
16775.420	667.464
16770.174	667.464
16765.846	667.464
16768.090	667.464
16769.807	667.464
16767.305	667.464
16768.059	667.387
16773.154	667.387
16776.424	667.387
16775.295	667.387
16776.008	667.387
16775.811	667.387
16774.828	667.387
16773.639	667.387
16775.824	667.316
16778.541	667.316
16778.389	667.316
16788.189	667.316
16791.648	667.316
16788.051	667.316
16787.797	667.316
16796.959	667.316
16802.488	667.188
16805.982	667.188
16806.635	667.188
16811.678	667.188
16812.430	667.188
16812.486	667.188
16819.061	667.188
16828.344	667.188
16835.477	667.051
16841.787	667.051
16856.215	667.051
16874.172	667.051
16886.127	667.051
16897.428	667.051
16912.367	667.051
16930.842	667.051
16948.635	666.903
16965.881	666.903
16985.984	666.903
17009.018	666.903
17030.125	666.903
17049.418	666.903
17070.486	666.903
17088.551	666.903
17107.473	666.724
17120.570	666.724
17130.039	666.724
17139.414	666.724
17148.563	666.724
17162.637	666.724
17175.455	666.724
17177.170	666.724
17167.465	666.506
17147.457	666.506
17122.262	666.506
17109.613	666.506
17073.236	666.506
17057.080	666.506
17002.848	666.506
16969.990	666.506
16946.248	666.318
16937.963	666.318
16911.313	666.318
16900.637	666.318
16869.682	666.318
16859.045	666.318
16852.969	666.318
16850.695	666.318
16848.469	666.140
16841.633	666.140
16832.688	666.140
16830.189	666.140
16829.834	666.140
16832.604	666.140
16834.990	666.140
16830.699	666.140
16827.404	666.039
16830.484	666.039
16829.082	666.039
16824.451	666.039
16825.439	666.039
16831.182	666.039
16831.619	666.039
16831.510	666.039
16835.963	665.949
16837.703	665.949
16834.879	665.949
16835.316	665.949
16839.838	665.949
16844.123	665.949
16844.760	665.949
16838.680	665.949
16832.574	665.895
16832.418	665.895
16839.719	665.895
16843.566	665.895
16843.660	665.895
16840.590	665.895
16841.156	665.895
16848.135	665.895
16847.729	665.847
16844.260	665.847
16841.250	665.847
16829.758	665.847
16826.260	665.847
16811.076	665.847
16807.268	665.847
16811.053	665.847
16813.803	665.788
16816.508	665.788
16815.621	665.788
16802.072	665.788
16795.742	665.788
16797.254	665.788
16791.785	665.788
16780.473	665.788
16772.236	665.751
16773.281	665.751
16774.936	665.751
16771.508	665.751
16768.969	665.751
16767.000	665.751
16765.787	665.751
16761.264	665.751
16759.883	665.709
16759.307	665.709
16756.611	665.709
16753.518	665.709
16750.600	665.709
16748.660	665.709
16750.824	665.709
16751.318	665.709
16745.693	665.642
16733.166	665.642
16731.117	665.642
16741.973	665.642
16746.143	665.642
16744.756	665.642
16734.775	665.642
16731.701	665.642
16721.947	665.584
16721.883	665.584
16726.182	665.584
16727.775	665.584
16732.363	665.584
16733.754	665.584
16733.580	665.584
16727.191	665.584
16722.719	665.529
16722.443	665.529
16726.102	665.529
16726.945	665.529
16728.322	665.529
16727.994	665.529
16724.408	665.529
16721.746	665.529
16719.100	665.433
16718.084	665.433
16722.814	665.433
16724.467	665.433
16721.813	665.433
16721.924	665.433
16726.879	665.433
16725.727	665.433
16718.256	665.369
16723.693	665.369
16729.209	665.369
16724.023	665.369
16719.281	665.369
16720.367	665.369
16722.523	665.369
16720.572	665.369
16721.449	665.302
16725.650	665.302
16727.754	665.302
16729.260	665.302
16728.791	665.302
16725.938	665.302
16733.883	665.302
16756.209	665.302
16769.045	665.217
16803.002	665.217
16805.590	665.217
16798.885	665.217
16800.516	665.217
16817.350	665.217
16819.443	665.217
16828.252	665.217
16839.256	665.037
16820.898	665.037
16803.670	665.037
16790.027	665.037
16801.410	665.037
16801.395	665.037
16796.105	665.037
16760.139	665.037
16718.977	664.848
16685.787	664.848
16681.561	664.848
16700.611	664.848
16712.615	664.848
16709.820	664.848
16709.551	664.848
16716.574	664.848
16720.426	664.715
16719.258	664.715
16716.193	664.715
16717.408	664.715
16723.959	664.715
16725.387	664.715
16710.709	664.715
16701.516	664.715
16721.934	664.599
16806.176	664.599
17031.414	664.599
17419.859	664.599
17800.621	664.599
18038.869	664.599
18266.707	664.599
18526.111	664.599
18645.164	664.505
18609.232	664.505
18233.135	664.505
17691.490	664.505
16999.191	664.505
16714.865	664.505
16507.598	664.505
16584.117	664.505
16750.492	664.396
16778.916	664.396
16782.160	664.396
16777.871	664.396
16773.824	664.396
16775.086	664.396
16769.230	664.396
16764.453	664.396
16763.574	664.299
16763.816	664.299
16770.707	664.299
16770.285	664.299
16770.041	664.299
16775.107	664.299
16776.783	664.299
16775.299	664.299
16776.176	664.254
16779.266	664.254
16781.539	664.254
16783.998	664.254
16787.771	664.254
16786.732	664.254
16787.775	664.254
